timestamp_s;timestamp_us;emg_raw;imu1_timestamp_us;imu1_ax;imu1_ay;imu1_az;imu1_gx;imu1_gy;imu1_gz;imu2_timestamp_us;imu2_ax;imu2_ay;imu2_az;imu2_gx;imu2_gy;imu2_gz
0.000434;3509006;;3509006;140.393;-483.019;902.12;365.843;-137.173;-21.918;3508572;-984.427;14.686;74.217;1266.475;-140.721;-320.128
0.021684;3530256;;3530256;140.395;-483.128;902.112;362.863;-136.876;-17.759;3529828;-984.359;14.501;74.148;1267.901;-138.935;-319.871
0.051981;3560553;;3560553;140.323;-483.201;902.311;393.283;-146.22;-21.684;3560119;-984.277;14.428;74.113;1275.381;-146.863;-317.44
0.080809;3589381;;3589381;140.298;-483.368;902.494;415.619;-153.347;-24.1;3588946;-984.308;14.25;74.14;1282.925;-149.582;-316.881
0.083928;3592500;184;;;;;;;;;;;;;;
0.086428;3595000;154;;;;;;;;;;;;;;
0.088928;3597500;157;;;;;;;;;;;;;;
0.091428;3600000;158;;;;;;;;;;;;;;
0.093928;3602500;175;;;;;;;;;;;;;;
0.096428;3605000;142;;;;;;;;;;;;;;
0.098928;3607500;155;;;;;;;;;;;;;;
0.101428;3610000;133;3610634;140.292;-483.349;902.643;428.525;-159.679;-23.77;3610202;-984.302;14.324;74.087;1283.091;-149.541;-317.662
0.103928;3612500;136;;;;;;;;;;;;;;
0.106428;3615000;0;;;;;;;;;;;;;;
0.108928;3617500;270;;;;;;;;;;;;;;
0.111428;3620000;213;;;;;;;;;;;;;;
0.113928;3622500;200;;;;;;;;;;;;;;
0.116428;3625000;174;;;;;;;;;;;;;;
0.118928;3627500;139;;;;;;;;;;;;;;
0.121428;3630000;153;;;;;;;;;;;;;;
0.123928;3632500;136;;;;;;;;;;;;;;
0.126428;3635000;160;;;;;;;;;;;;;;
0.128928;3637500;347;;;;;;;;;;;;;;
0.131428;3640000;238;3640928;140.146;-483.417;902.712;430.724;-156.508;-20.394;3640493;-984.301;14.206;74.104;1284.561;-152.564;-319.716
0.133928;3642500;191;;;;;;;;;;;;;;
0.136428;3645000;167;;;;;;;;;;;;;;
0.138928;3647500;141;;;;;;;;;;;;;;
0.141428;3650000;154;;;;;;;;;;;;;;
0.143928;3652500;153;;;;;;;;;;;;;;
0.146428;3655000;167;;;;;;;;;;;;;;
0.148928;3657500;174;;;;;;;;;;;;;;
0.151428;3660000;168;;;;;;;;;;;;;;
0.153928;3662500;185;;;;;;;;;;;;;;
0.156428;3665000;151;;;;;;;;;;;;;;
0.158928;3667500;344;;;;;;;;;;;;;;
0.161428;3670000;208;3669754;140.147;-483.53;902.686;419.688;-151.745;-15.874;3669320;-984.216;14.221;74.065;1286.396;-153.248;-319.043
0.163928;3672500;160;;;;;;;;;;;;;;
0.166428;3675000;173;;;;;;;;;;;;;;
0.168928;3677500;159;;;;;;;;;;;;;;
0.171428;3680000;187;;;;;;;;;;;;;;
0.173928;3682500;156;;;;;;;;;;;;;;
0.176428;3685000;168;;;;;;;;;;;;;;
0.178928;3687500;156;;;;;;;;;;;;;;
0.181428;3690000;136;3691180;140.106;-483.766;902.808;412.266;-151.158;-8.955;3690752;-984.183;14.273;74.028;1280.701;-152.148;-316.216
0.183928;3692500;138;;;;;;;;;;;;;;
0.186428;3695000;0;;;;;;;;;;;;;;
0.188928;3697500;287;;;;;;;;;;;;;;
0.191428;3700000;237;;;;;;;;;;;;;;
0.193928;3702500;186;;;;;;;;;;;;;;
0.196428;3705000;176;;;;;;;;;;;;;;
0.198928;3707500;139;;;;;;;;;;;;;;
0.201428;3710000;128;;;;;;;;;;;;;;
0.203928;3712500;135;;;;;;;;;;;;;;
0.206428;3715000;142;3715496;140.116;-483.819;903.027;417.028;-148.412;-10.258;3715062;-984.189;14.334;74.072;1282.729;-151.541;-315.717
0.208928;3717500;364;;;;;;;;;;;;;;
0.211428;3720000;269;;;;;;;;;;;;;;
0.213928;3722500;201;;;;;;;;;;;;;;
0.216428;3725000;168;;;;;;;;;;;;;;
0.218928;3727500;141;;;;;;;;;;;;;;
0.221428;3730000;154;;;;;;;;;;;;;;
0.223928;3732500;155;;;;;;;;;;;;;;
0.226428;3735000;142;;;;;;;;;;;;;;
0.228928;3737500;156;;;;;;;;;;;;;;
0.231428;3740000;168;;;;;;;;3740923;-984.042;14.361;74.12;1288.155;-154.026;-316.994
0.233928;3742500;160;3741351;140.058;-483.827;903.016;419.801;-148.867;-7.12;;;;;;;
0.236428;3745000;152;;;;;;;;;;;;;;
0.238928;3747500;365;;;;;;;;;;;;;;
0.241428;3750000;222;;;;;;;;;;;;;;
0.243928;3752500;171;;;;;;;;;;;;;;
0.246428;3755000;174;;;;;;;;;;;;;;
0.248928;3757500;185;;;;;;;;;;;;;;
0.251428;3760000;167;;;;;;;;;;;;;;
0.253928;3762500;158;;;;;;;;;;;;;;
0.256428;3765000;142;;;;;;;;;;;;;;
0.258928;3767500;155;;;;;;;;;;;;;;
0.261428;3770000;136;;;;;;;;3771126;-984.036;14.406;74.11;1286.747;-149.387;-318.207
0.263928;3772500;136;3771560;139.997;-483.791;903.017;413.249;-146.236;-4.139;;;;;;;
0.266428;3775000;144;;;;;;;;;;;;;;
0.268928;3777500;301;;;;;;;;;;;;;;
0.271428;3780000;249;;;;;;;;;;;;;;
0.273928;3782500;190;;;;;;;;;;;;;;
0.276428;3785000;157;;;;;;;;;;;;;;
0.278928;3787500;141;;;;;;;;;;;;;;
0.281428;3790000;134;;;;;;;;;;;;;;
0.283928;3792500;155;;;;;;;;;;;;;;
0.286428;3795000;142;;;;;;;;;;;;;;
0.288928;3797500;393;;;;;;;;;;;;;;
0.291428;3800000;267;;;;;;;;;;;;;;
0.293928;3802500;230;3801751;140.122;-483.746;903.262;420.586;-145.049;-1.744;3801329;-984.195;14.436;74.193;1286.722;-145.856;-316.734
0.296428;3805000;170;;;;;;;;;;;;;;
0.298928;3807500;142;;;;;;;;;;;;;;
0.301428;3810000;136;;;;;;;;;;;;;;
0.303928;3812500;152;;;;;;;;;;;;;;
0.306428;3815000;167;;;;;;;;;;;;;;
0.308928;3817500;157;;;;;;;;;;;;;;
0.311428;3820000;168;;;;;;;;;;;;;;
0.313928;3822500;330;;;;;;;;;;;;;;
0.316428;3825000;248;;;;;;;;;;;;;;
0.318928;3827500;189;;;;;;;;;;;;;;
0.321428;3830000;139;3830426;140.143;-483.83;903.276;424.494;-146.109;-3.845;3829981;-984.176;14.422;74.21;1285.386;-149.938;-317.085
0.323928;3832500;156;;;;;;;;;;;;;;
0.326428;3835000;167;;;;;;;;;;;;;;
0.328928;3837500;174;;;;;;;;;;;;;;
0.331428;3840000;185;;;;;;;;;;;;;;
0.333928;3842500;159;;;;;;;;;;;;;;
0.336428;3845000;172;;;;;;;;;;;;;;
0.338928;3847500;395;;;;;;;;;;;;;;
0.341428;3850000;263;;;;;;;;;;;;;;
0.343928;3852500;199;3851749;140.12;-484.039;903.349;430.395;-146.241;-4.965;3851326;-984.139;14.347;74.282;1286.304;-149.441;-319.605
0.346428;3855000;185;;;;;;;;;;;;;;
0.348928;3857500;185;;;;;;;;;;;;;;
0.351428;3860000;170;;;;;;;;;;;;;;
0.353928;3862500;185;;;;;;;;;;;;;;
0.356428;3865000;171;;;;;;;;;;;;;;
0.358928;3867500;138;;;;;;;;;;;;;;
0.361428;3870000;153;;;;;;;;;;;;;;
0.363928;3872500;135;;;;;;;;;;;;;;
0.366428;3875000;142;;;;;;;;;;;;;;
0.368928;3877500;351;;;;;;;;;;;;;;
0.371428;3880000;280;;;;;;;;;;;;;;
0.373928;3882500;235;3881789;140.001;-484.145;903.456;435.562;-145.054;-5.592;3881355;-984.202;14.405;74.344;1291.114;-145.906;-318.5
0.376428;3885000;199;;;;;;;;;;;;;;
0.378928;3887500;152;;;;;;;;;;;;;;
0.381428;3890000;139;;;;;;;;;;;;;;
0.383928;3892500;139;;;;;;;;;;;;;;
0.386428;3895000;168;;;;;;;;;;;;;;
0.388928;3897500;182;;;;;;;;;;;;;;
0.391428;3900000;166;;;;;;;;;;;;;;
0.393928;3902500;168;;;;;;;;;;;;;;
0.396428;3905000;154;;;;;;;;;;;;;;
0.398928;3907500;22;;;;;;;;;;;;;;
0.401428;3910000;263;3910530;140.004;-484.186;903.625;437.409;-149.614;-3.125;3910095;-984.219;14.471;74.305;1299.621;-145.611;-319.638
0.403928;3912500;204;;;;;;;;;;;;;;
0.406428;3915000;167;;;;;;;;;;;;;;
0.408928;3917500;159;;;;;;;;;;;;;;
0.411428;3920000;186;;;;;;;;;;;;;;
0.413928;3922500;184;;;;;;;;;;;;;;
0.416428;3925000;153;;;;;;;;;;;;;;
0.418928;3927500;140;;;;;;;;;;;;;;
0.421428;3930000;128;;;;;;;;;;;;;;
0.423928;3932500;155;3931871;139.939;-484.358;903.754;439.601;-150.008;-2.968;3931440;-984.339;14.565;74.323;1297.64;-143.143;-319.843
0.426428;3935000;167;;;;;;;;;;;;;;
0.428928;3937500;331;;;;;;;;;;;;;;
0.431428;3940000;247;;;;;;;;;;;;;;
0.433928;3942500;201;;;;;;;;;;;;;;
0.436428;3945000;185;;;;;;;;;;;;;;
0.438928;3947500;141;;;;;;;;;;;;;;
0.441428;3950000;137;;;;;;;;;;;;;;
0.443928;3952500;137;;;;;;;;;;;;;;
0.446428;3955000;143;;;;;;;;;;;;;;
0.448928;3957500;0;;;;;;;;;;;;;;
0.451428;3960000;284;;;;;;;;;;;;;;
0.453928;3962500;237;3961899;139.951;-484.29;903.81;439.059;-148.633;-1.507;3961469;-984.361;14.581;74.309;1293.57;-142.548;-320.476
0.456428;3965000;174;;;;;;;;;;;;;;
0.458928;3967500;152;;;;;;;;;;;;;;
0.461428;3970000;135;;;;;;;;;;;;;;
0.463928;3972500;137;;;;;;;;;;;;;;
0.466428;3975000;169;;;;;;;;;;;;;;
0.468928;3977500;174;;;;;;;;;;;;;;
0.471428;3980000;184;;;;;;;;;;;;;;
0.473928;3982500;166;;;;;;;;;;;;;;
0.476428;3985000;152;;;;;;;;;;;;;;
0.478928;3987500;330;;;;;;;;;;;;;;
0.481428;3990000;271;3990480;139.932;-484.262;903.93;443.793;-148.201;-2.307;3990042;-984.339;14.529;74.296;1292.329;-142.858;-322.39
0.483928;3992500;201;;;;;;;;;;;;;;
0.486428;3995000;158;;;;;;;;;;;;;;
0.488928;3997500;185;;;;;;;;;;;;;;
0.491428;4000000;169;;;;;;;;;;;;;;
0.493928;4002500;168;;;;;;;;;;;;;;
0.496428;4005000;170;;;;;;;;;;;;;;
0.498928;4007500;137;;;;;;;;;;;;;;
0.501428;4010000;152;;;;;;;;;;;;;;
0.503928;4012500;154;4011802;139.993;-484.29;904.026;450.916;-150.854;-4.379;4011380;-984.417;14.449;74.266;1295.963;-142.715;-323.333
0.506428;4015000;168;;;;;;;;;;;;;;
0.508928;4017500;361;;;;;;;;;;;;;;
0.511428;4020000;248;;;;;;;;;;;;;;
0.513928;4022500;200;;;;;;;;;;;;;;
0.516428;4025000;186;;;;;;;;;;;;;;
0.518928;4027500;166;;;;;;;;;;;;;;
0.521428;4030000;154;;;;;;;;;;;;;;
0.523928;4032500;128;;;;;;;;;;;;;;
0.526428;4035000;159;;;;;;;;;;;;;;
0.528928;4037500;4;;;;;;;;;;;;;;
0.531428;4040000;286;;;;;;;;;;;;;;
0.533928;4042500;235;4041842;140.015;-484.256;904.172;454.62;-155.561;-4.598;4041407;-984.246;14.41;74.14;1289.352;-144.33;-319.854
0.536428;4045000;172;;;;;;;;;;;;;;
0.538928;4047500;169;;;;;;;;;;;;;;
0.541428;4050000;137;;;;;;;;;;;;;;
0.543928;4052500;152;;;;;;;;;;;;;;
0.546428;4055000;167;;;;;;;;;;;;;;
0.548928;4057500;155;;;;;;;;;;;;;;
0.551428;4060000;184;;;;;;;;;;;;;;
0.553928;4062500;167;;;;;;;;;;;;;;
0.556428;4065000;171;;;;;;;;;;;;;;
0.558928;4067500;0;;;;;;;;;;;;;;
0.561428;4070000;253;4070416;139.992;-484.449;904.171;451.139;-159.158;-2.18;4069975;-984.492;14.263;74.099;1291.822;-146.301;-324.861
0.563928;4072500;185;;;;;;;;;;;;;;
0.566428;4075000;167;;;;;;;;;;;;;;
0.568928;4077500;186;;;;;;;;;;;;;;
0.571428;4080000;168;;;;;;;;;;;;;;
0.573928;4082500;159;;;;;;;;;;;;;;
0.576428;4085000;171;;;;;;;;;;;;;;
0.578928;4087500;157;;;;;;;;;;;;;;
0.581428;4090000;135;;;;;;;;;;;;;;
0.583928;4092500;135;4091751;140.044;-484.523;904.316;450.895;-158.637;-2.071;4091320;-984.464;14.276;74.176;1291.543;-148.173;-324.368
0.586428;4095000;152;;;;;;;;;;;;;;
0.588928;4097500;350;;;;;;;;;;;;;;
0.591428;4100000;267;;;;;;;;;;;;;;
0.593928;4102500;192;;;;;;;;;;;;;;
0.596428;4105000;168;;;;;;;;;;;;;;
0.598928;4107500;142;;;;;;;;;;;;;;
0.601428;4110000;156;;;;;;;;;;;;;;
0.603928;4112500;155;;;;;;;;;;;;;;
0.606428;4115000;141;4116061;140.069;-484.587;904.374;450.225;-154.643;-3.718;4115631;-984.596;14.471;74.151;1291.716;-147.327;-323.462
0.608928;4117500;0;;;;;;;;;;;;;;
0.611428;4120000;285;;;;;;;;;;;;;;
0.613928;4122500;217;;;;;;;;;;;;;;
0.616428;4125000;172;;;;;;;;;;;;;;
0.618928;4127500;151;;;;;;;;;;;;;;
0.621428;4130000;137;;;;;;;;;;;;;;
0.623928;4132500;135;;;;;;;;;;;;;;
0.626428;4135000;167;;;;;;;;;;;;;;
0.628928;4137500;174;;;;;;;;;;;;;;
0.631428;4140000;166;;;;;;;;;;;;;;
0.633928;4142500;169;4141836;140.093;-484.703;904.509;450.026;-153.473;-3.532;4141404;-984.496;14.485;74.207;1287.505;-149.586;-320.851
0.636428;4145000;172;;;;;;;;;;;;;;
0.638928;4147500;0;;;;;;;;;;;;;;
0.641428;4150000;282;;;;;;;;;;;;;;
0.643928;4152500;205;;;;;;;;;;;;;;
0.646428;4155000;187;;;;;;;;;;;;;;
0.648928;4157500;184;;;;;;;;;;;;;;
0.651428;4160000;169;;;;;;;;;;;;;;
0.653928;4162500;186;;;;;;;;;;;;;;
0.656428;4165000;155;;;;;;;;;;;;;;
0.658928;4167500;140;;;;;;;;;;;;;;
0.661428;4170000;155;;;;;;;;;;;;;;
0.663928;4172500;154;4171863;139.945;-484.673;904.576;441.525;-148.862;-1.168;4171433;-984.467;14.463;74.304;1279.568;-148.669;-317.934
0.666428;4175000;168;;;;;;;;;;;;;;
0.668928;4177500;332;;;;;;;;;;;;;;
0.671428;4180000;248;;;;;;;;;;;;;;
0.673928;4182500;218;;;;;;;;;;;;;;
0.676428;4185000;170;;;;;;;;;;;;;;
0.678928;4187500;169;;;;;;;;;;;;;;
0.681428;4190000;138;;;;;;;;;;;;;;
0.683928;4192500;157;;;;;;;;;;;;;;
0.686428;4195000;167;;;;;;;;;;;;;;
0.688928;4197500;345;;;;;;;;;;;;;;
0.691428;4200000;304;;;;;;;;;;;;;;
0.693928;4202500;236;4202067;139.883;-484.632;904.518;447.886;-151.482;-0.672;4201636;-984.367;14.532;74.236;1286.027;-149.548;-319.537
0.696428;4205000;200;;;;;;;;;;;;;;
0.698928;4207500;171;;;;;;;;;;;;;;
0.701428;4210000;136;;;;;;;;;;;;;;
0.703928;4212500;135;;;;;;;;;;;;;;
0.706428;4215000;166;;;;;;;;;;;;;;
0.708928;4217500;174;;;;;;;;;;;;;;
0.711428;4220000;188;;;;;;;;;;;;;;
0.713928;4222500;364;;;;;;;;;;;;;;
0.716428;4225000;247;;;;;;;;;;;;;;
0.718928;4227500;176;;;;;;;;;;;;;;
0.721428;4230000;144;4230637;140.008;-484.647;904.517;458.742;-154.845;-2.388;4230201;-984.309;14.33;74.251;1293.038;-154.758;-323.685
0.723928;4232500;138;;;;;;;;;;;;;;
0.726428;4235000;143;;;;;;;;;;;;;;
0.728928;4237500;183;;;;;;;;;;;;;;
0.731428;4240000;167;;;;;;;;;;;;;;
0.733928;4242500;184;;;;;;;;;;;;;;
0.736428;4245000;154;;;;;;;;;;;;;;
0.738928;4247500;0;;;;;;;;;;;;;;
0.741428;4250000;280;;;;;;;;;;;;;;
0.743928;4252500;204;4251978;139.949;-484.534;904.779;469.492;-157.603;-4.456;4251547;-984.314;14.37;74.107;1294.886;-151.833;-321.064
0.746428;4255000;184;;;;;;;;;;;;;;
0.748928;4257500;159;;;;;;;;;;;;;;
0.751428;4260000;169;;;;;;;;;;;;;;
0.753928;4262500;185;;;;;;;;;;;;;;
0.756428;4265000;153;;;;;;;;;;;;;;
0.758928;4267500;140;;;;;;;;;;;;;;
0.761428;4270000;128;;;;;;;;;;;;;;
0.763928;4272500;136;;;;;;;;;;;;;;
0.766428;4275000;164;;;;;;;;;;;;;;
0.768928;4277500;201;;;;;;;;;;;;;;
0.771428;4280000;286;;;;;;;;;;;;;;
0.773928;4282500;219;4282006;139.887;-484.592;904.991;475.33;-160.66;-5.546;4281575;-984.24;14.292;74.038;1294.454;-154.304;-322.073
0.776428;4285000;182;;;;;;;;;;;;;;
0.778928;4287500;171;;;;;;;;;;;;;;
0.781428;4290000;139;;;;;;;;;;;;;;
0.783928;4292500;136;;;;;;;;;;;;;;
0.786428;4295000;141;;;;;;;;;;;;;;
0.788928;4297500;155;;;;;;;;;;;;;;
0.791428;4300000;186;;;;;;;;;;;;;;
0.793928;4302500;168;;;;;;;;;;;;;;
0.796428;4305000;173;;;;;;;;;;;;;;
0.798928;4307500;0;;;;;;;;;;;;;;
0.801428;4310000;269;4310754;139.847;-484.585;905.095;485.689;-167.065;-11.394;4310315;-984.157;14.358;73.977;1301.919;-158.401;-324.782
0.803928;4312500;188;;;;;;;;;;;;;;
0.806428;4315000;167;;;;;;;;;;;;;;
0.808928;4317500;168;;;;;;;;;;;;;;
0.811428;4320000;170;;;;;;;;;;;;;;
0.813928;4322500;186;;;;;;;;;;;;;;
0.816428;4325000;154;;;;;;;;;;;;;;
0.818928;4327500;157;;;;;;;;;;;;;;
0.821428;4330000;135;;;;;;;;;;;;;;
0.823928;4332500;156;4332169;139.998;-484.726;905.121;503.842;-184.961;-20.449;4331747;-984.189;14.36;74.048;1311.198;-163.168;-326.48
0.826428;4335000;159;;;;;;;;;;;;;;
0.828928;4337500;344;;;;;;;;;;;;;;
0.831428;4340000;249;;;;;;;;;;;;;;
0.833928;4342500;218;;;;;;;;;;;;;;
0.836428;4345000;169;;;;;;;;;;;;;;
0.838928;4347500;169;;;;;;;;;;;;;;
0.841428;4350000;135;;;;;;;;;;;;;;
0.843928;4352500;135;;;;;;;;;;;;;;
0.846428;4355000;156;;;;;;;;;;;;;;
0.848928;4357500;0;;;;;;;;;;;;;;
0.851428;4360000;315;;;;;;;;;;;;;;
0.853928;4362500;222;4362471;139.982;-484.682;905.224;494.4;-178.776;-14.614;4362036;-984.231;14.411;73.988;1308.201;-159.385;-325.031
0.856428;4365000;184;;;;;;;;;;;;;;
0.858928;4367500;153;;;;;;;;;;;;;;
0.861428;4370000;155;;;;;;;;;;;;;;
0.863928;4372500;153;;;;;;;;;;;;;;
0.866428;4375000;140;;;;;;;;;;;;;;
0.868928;4377500;171;;;;;;;;;;;;;;
0.871428;4380000;167;;;;;;;;;;;;;;
0.873928;4382500;185;;;;;;;;;;;;;;
0.876428;4385000;173;;;;;;;;;;;;;;
0.878928;4387500;204;;;;;;;;;;;;;;
0.881428;4390000;266;;;;;;;;4390862;-984.252;14.258;73.967;1299.228;-152.728;-322.78
0.883928;4392500;186;4391298;140.163;-484.506;905.109;479.742;-160.65;-8.196;;;;;;;
0.886428;4395000;168;;;;;;;;;;;;;;
0.888928;4397500;185;;;;;;;;;;;;;;
0.891428;4400000;170;;;;;;;;;;;;;;
0.893928;4402500;185;;;;;;;;;;;;;;
0.896428;4405000;155;;;;;;;;;;;;;;
0.898928;4407500;140;;;;;;;;;;;;;;
0.901428;4410000;136;;;;;;;;;;;;;;
0.903928;4412500;137;4412639;140.292;-484.474;905.006;475.005;-151.305;-6.474;4412208;-984.395;14.149;73.989;1295.079;-148.154;-323.703
0.906428;4415000;158;;;;;;;;;;;;;;
0.908928;4417500;347;;;;;;;;;;;;;;
0.911428;4420000;270;;;;;;;;;;;;;;
0.913928;4422500;202;;;;;;;;;;;;;;
0.916428;4425000;171;;;;;;;;;;;;;;
0.918928;4427500;170;;;;;;;;;;;;;;
0.921428;4430000;154;;;;;;;;;;;;;;
0.923928;4432500;153;;;;;;;;;;;;;;
0.926428;4435000;139;;;;;;;;;;;;;;
0.928928;4437500;154;;;;;;;;;;;;;;
0.931428;4440000;301;;;;;;;;;;;;;;
0.933928;4442500;232;4442839;140.323;-484.51;904.981;482.755;-157.302;-6.15;4442409;-984.262;14.161;74.041;1302.95;-152.559;-320.205
0.936428;4445000;185;;;;;;;;;;;;;;
0.938928;4447500;153;;;;;;;;;;;;;;
0.941428;4450000;138;;;;;;;;;;;;;;
0.943928;4452500;154;;;;;;;;;;;;;;
0.946428;4455000;142;;;;;;;;;;;;;;
0.948928;4457500;156;;;;;;;;;;;;;;
0.951428;4460000;169;;;;;;;;;;;;;;
0.953928;4462500;169;;;;;;;;;;;;;;
0.956428;4465000;183;;;;;;;;;;;;;;
0.958928;4467500;144;;;;;;;;;;;;;;
0.961428;4470000;314;;;;;;;;4471150;-984.44;14.276;73.895;1303.865;-150.619;-318.633
0.963928;4472500;201;4471588;140.328;-484.635;904.921;474.367;-152.937;-1.03;;;;;;;
0.966428;4475000;169;;;;;;;;;;;;;;
0.968928;4477500;169;;;;;;;;;;;;;;
0.971428;4480000;198;;;;;;;;;;;;;;
0.973928;4482500;188;;;;;;;;;;;;;;
0.976428;4485000;169;;;;;;;;;;;;;;
0.978928;4487500;153;;;;;;;;;;;;;;
0.981428;4490000;139;;;;;;;;;;;;;;
0.983928;4492500;139;4492917;140.424;-484.791;904.754;465.524;-136.102;0.772;4492495;-984.445;14.24;73.97;1295.109;-149.213;-318.014
0.986428;4495000;170;;;;;;;;;;;;;;
0.988928;4497500;399;;;;;;;;;;;;;;
0.991428;4500000;297;;;;;;;;;;;;;;
0.993928;4502500;218;;;;;;;;;;;;;;
0.996428;4505000;176;;;;;;;;;;;;;;
0.998928;4507500;156;;;;;;;;;;;;;;
1.001428;4510000;158;;;;;;;;;;;;;;
1.003928;4512500;157;;;;;;;;;;;;;;
1.006428;4515000;142;;;;;;;;;;;;;;
1.008928;4517500;174;4517066;140.46;-484.799;904.65;458.872;-128.422;5.108;4516632;-984.45;14.223;73.987;1288.104;-148.752;-320.925
1.011428;4520000;328;;;;;;;;;;;;;;
1.013928;4522500;236;;;;;;;;;;;;;;
1.016428;4525000;204;;;;;;;;;;;;;;
1.018928;4527500;156;;;;;;;;;;;;;;
1.021428;4530000;159;;;;;;;;;;;;;;
1.023928;4532500;155;;;;;;;;;;;;;;
1.026428;4535000;140;;;;;;;;;;;;;;
1.028928;4537500;172;;;;;;;;;;;;;;
1.031428;4540000;160;;;;;;;;;;;;;;
1.033928;4542500;185;4542570;140.318;-484.99;904.46;462.616;-128.126;4.415;4542143;-984.467;14.378;73.954;1289.761;-149.189;-320.629
1.036428;4545000;171;;;;;;;;;;;;;;
1.038928;4547500;157;;;;;;;;;;;;;;
1.041428;4550000;330;;;;;;;;;;;;;;
1.043928;4552500;205;;;;;;;;;;;;;;
1.046428;4555000;169;;;;;;;;;;;;;;
1.048928;4557500;159;;;;;;;;;;;;;;
1.051428;4560000;168;;;;;;;;;;;;;;
1.053928;4562500;186;;;;;;;;;;;;;;
1.056428;4565000;174;;;;;;;;;;;;;;
1.058928;4567500;167;;;;;;;;;;;;;;
1.061428;4570000;154;;;;;;;;;;;;;;
1.063928;4572500;154;4572695;140.232;-485.073;904.328;455.673;-125.657;7.257;4572261;-984.397;14.33;73.867;1282.148;-148.73;-322.535
1.066428;4575000;158;;;;;;;;;;;;;;
1.068928;4577500;19;;;;;;;;;;;;;;
1.071428;4580000;300;;;;;;;;;;;;;;
1.073928;4582500;217;;;;;;;;;;;;;;
1.076428;4585000;201;;;;;;;;;;;;;;
1.078928;4587500;153;;;;;;;;;;;;;;
1.081428;4590000;136;;;;;;;;;;;;;;
1.083928;4592500;154;;;;;;;;;;;;;;
1.086428;4595000;157;;;;;;;;;;;;;;
1.088928;4597500;153;;;;;;;;;;;;;;
1.091428;4600000;333;;;;;;;;;;;;;;
1.093928;4602500;239;4602799;140.205;-484.921;904.178;455.202;-118.062;9.519;4602377;-984.441;14.364;74.005;1272.728;-150.043;-321.283
1.096428;4605000;188;;;;;;;;;;;;;;
1.098928;4607500;156;;;;;;;;;;;;;;
1.101428;4610000;139;;;;;;;;;;;;;;
1.103928;4612500;138;;;;;;;;;;;;;;
1.106428;4615000;141;;;;;;;;;;;;;;
1.108928;4617500;171;;;;;;;;;;;;;;
1.111428;4620000;160;;;;;;;;;;;;;;
1.113928;4622500;0;;;;;;;;;;;;;;
1.116428;4625000;286;;;;;;;;;;;;;;
1.118928;4627500;203;;;;;;;;;;;;;;
1.121428;4630000;181;;;;;;;;4631029;-984.049;14.494;74.086;1275.592;-169.666;-314.407
1.123928;4632500;141;4631468;139.801;-484.898;903.06;407.504;-118.721;5.106;;;;;;;
1.126428;4635000;167;;;;;;;;;;;;;;
1.128928;4637500;155;;;;;;;;;;;;;;
1.131428;4640000;169;;;;;;;;;;;;;;
1.133928;4642500;188;;;;;;;;;;;;;;
1.136428;4645000;167;;;;;;;;;;;;;;
1.138928;4647500;153;;;;;;;;;;;;;;
1.141428;4650000;296;;;;;;;;;;;;;;
1.143928;4652500;202;4652710;139.496;-485.242;904.06;403.317;-100.973;37.663;4652288;-984.147;14.349;74.066;1278.312;-173.433;-313.124
1.146428;4655000;168;;;;;;;;;;;;;;
1.148928;4657500;169;;;;;;;;;;;;;;
1.151428;4660000;188;;;;;;;;;;;;;;
1.153928;4662500;170;;;;;;;;;;;;;;
1.156428;4665000;183;;;;;;;;;;;;;;
1.158928;4667500;142;;;;;;;;;;;;;;
1.161428;4670000;137;;;;;;;;;;;;;;
1.163928;4672500;136;;;;;;;;;;;;;;
1.166428;4675000;140;;;;;;;;;;;;;;
1.168928;4677500;172;;;;;;;;;;;;;;
1.171428;4680000;320;;;;;;;;;;;;;;
1.173928;4682500;255;4682838;139.524;-485.636;903.631;442.651;-127.424;22.217;4682403;-984.051;14.479;74.255;1291.834;-163.011;-315.843
1.176428;4685000;205;;;;;;;;;;;;;;
1.178928;4687500;172;;;;;;;;;;;;;;
1.181428;4690000;154;;;;;;;;;;;;;;
1.183928;4692500;134;;;;;;;;;;;;;;
1.186428;4695000;157;;;;;;;;;;;;;;
1.188928;4697500;169;;;;;;;;;;;;;;
1.191428;4700000;156;;;;;;;;;;;;;;
1.193928;4702500;184;;;;;;;;;;;;;;
1.196428;4705000;155;;;;;;;;;;;;;;
1.198928;4707500;141;;;;;;;;;;;;;;
1.201428;4710000;312;;;;;;;;4711143;-984.142;14.451;73.989;1312.555;-177.173;-313.613
1.203928;4712500;221;4711578;139.539;-485.364;902.839;453.331;-146.865;-2.081;;;;;;;
1.206428;4715000;186;;;;;;;;;;;;;;
1.208928;4717500;157;;;;;;;;;;;;;;
1.211428;4720000;185;;;;;;;;;;;;;;
1.213928;4722500;166;;;;;;;;;;;;;;
1.216428;4725000;173;;;;;;;;;;;;;;
1.218928;4727500;158;;;;;;;;;;;;;;
1.221428;4730000;126;;;;;;;;;;;;;;
1.223928;4732500;143;4732920;139.461;-485.544;903.453;428.477;-137.335;-1.54;4732488;-984.174;14.234;73.748;1286.74;-172.252;-307.995
1.226428;4735000;154;;;;;;;;;;;;;;
1.228928;4737500;31;;;;;;;;;;;;;;
1.231428;4740000;296;;;;;;;;;;;;;;
1.233928;4742500;215;;;;;;;;;;;;;;
1.236428;4745000;174;;;;;;;;;;;;;;
1.238928;4747500;152;;;;;;;;;;;;;;
1.241428;4750000;153;;;;;;;;;;;;;;
1.243928;4752500;127;;;;;;;;;;;;;;
1.246428;4755000;138;;;;;;;;;;;;;;
1.248928;4757500;170;;;;;;;;;;;;;;
1.251428;4760000;345;;;;;;;;;;;;;;
1.253928;4762500;236;4763121;139.546;-485.801;903.622;452.115;-152.78;-5.838;4762691;-984.528;14.096;74.026;1309.465;-184.639;-303.533
1.256428;4765000;187;;;;;;;;;;;;;;
1.258928;4767500;155;;;;;;;;;;;;;;
1.261428;4770000;155;;;;;;;;;;;;;;
1.263928;4772500;135;;;;;;;;;;;;;;
1.266428;4775000;140;;;;;;;;;;;;;;
1.268928;4777500;153;;;;;;;;;;;;;;
1.271428;4780000;158;;;;;;;;;;;;;;
1.273928;4782500;185;;;;;;;;;;;;;;
1.276428;4785000;156;;;;;;;;;;;;;;
1.278928;4787500;143;;;;;;;;;;;;;;
1.281428;4790000;312;;;;;;;;;;;;;;
1.283928;4792500;203;4791869;139.394;-485.417;904.136;546.76;-198.079;-41.858;4791430;-984.517;14.263;74.039;1334.554;-180.657;-310.231
1.286428;4795000;168;;;;;;;;;;;;;;
1.288928;4797500;184;;;;;;;;;;;;;;
1.291428;4800000;187;;;;;;;;;;;;;;
1.293928;4802500;169;;;;;;;;;;;;;;
1.296428;4805000;159;;;;;;;;;;;;;;
1.298928;4807500;169;;;;;;;;;;;;;;
1.301428;4810000;136;;;;;;;;;;;;;;
1.303928;4812500;136;4813284;139.287;-485.888;904.484;592.484;-206.112;-43.265;4812862;-984.567;14.227;73.79;1340.889;-184.312;-307.844
1.306428;4815000;139;;;;;;;;;;;;;;
1.308928;4817500;295;;;;;;;;;;;;;;
1.311428;4820000;299;;;;;;;;;;;;;;
1.313928;4822500;218;;;;;;;;;;;;;;
1.316428;4825000;201;;;;;;;;;;;;;;
1.318928;4827500;154;;;;;;;;;;;;;;
1.321428;4830000;138;;;;;;;;;;;;;;
1.323928;4832500;156;;;;;;;;;;;;;;
1.326428;4835000;157;;;;;;;;;;;;;;
1.328928;4837500;169;;;;;;;;;;;;;;
1.331428;4840000;333;;;;;;;;;;;;;;
1.333928;4842500;264;4843584;139.246;-486.073;903.979;556.297;-156.432;-27.977;4843150;-984.577;14.041;73.742;1313.219;-195.659;-301.202
1.336428;4845000;214;;;;;;;;;;;;;;
1.338928;4847500;175;;;;;;;;;;;;;;
1.341428;4850000;138;;;;;;;;;;;;;;
1.343928;4852500;154;;;;;;;;;;;;;;
1.346428;4855000;155;;;;;;;;;;;;;;
1.348928;4857500;150;;;;;;;;;;;;;;
1.351428;4860000;172;;;;;;;;;;;;;;
1.353928;4862500;166;;;;;;;;;;;;;;
1.356428;4865000;174;;;;;;;;;;;;;;
1.358928;4867500;167;;;;;;;;;;;;;;
1.361428;4870000;320;;;;;;;;;;;;;;
1.363928;4872500;206;4872406;139.384;-485.547;903.511;516.232;-122.798;-14.766;4871979;-984.49;14.125;73.825;1297.433;-205.126;-293.58
1.366428;4875000;188;;;;;;;;;;;;;;
1.368928;4877500;158;;;;;;;;;;;;;;
1.371428;4880000;175;;;;;;;;;;;;;;
1.373928;4882500;158;;;;;;;;;;;;;;
1.376428;4885000;153;;;;;;;;;;;;;;
1.378928;4887500;138;;;;;;;;;;;;;;
1.381428;4890000;143;;;;;;;;;;;;;;
1.383928;4892500;143;;;;;;;;4893409;-984.541;14.017;73.934;1303.437;-197.932;-295.963
1.386428;4895000;138;4893844;139.515;-485.407;903.378;507.921;-119.283;-8.777;;;;;;;
1.388928;4897500;281;;;;;;;;;;;;;;
1.391428;4900000;311;;;;;;;;;;;;;;
1.393928;4902500;237;;;;;;;;;;;;;;
1.396428;4905000;203;;;;;;;;;;;;;;
1.398928;4907500;156;;;;;;;;;;;;;;
1.401428;4910000;156;;;;;;;;;;;;;;
1.403928;4912500;134;;;;;;;;;;;;;;
1.406428;4915000;154;;;;;;;;;;;;;;
1.408928;4917500;168;4918143;139.512;-485.555;903.428;524.087;-124.694;-2.651;4917721;-984.627;14.115;73.995;1310.015;-182.786;-303.04
1.411428;4920000;349;;;;;;;;;;;;;;
1.413928;4922500;250;;;;;;;;;;;;;;
1.416428;4925000;189;;;;;;;;;;;;;;
1.418928;4927500;156;;;;;;;;;;;;;;
1.421428;4930000;137;;;;;;;;;;;;;;
1.423928;4932500;127;;;;;;;;;;;;;;
1.426428;4935000;154;;;;;;;;;;;;;;
1.428928;4937500;170;;;;;;;;;;;;;;
1.431428;4940000;158;;;;;;;;;;;;;;
1.433928;4942500;167;;;;;;;;4943494;-984.519;14.318;73.766;1308.389;-184.584;-301.888
1.436428;4945000;155;4943933;139.576;-485.635;903.037;493.945;-105.334;8.419;;;;;;;
1.438928;4947500;168;;;;;;;;;;;;;;
1.441428;4950000;381;;;;;;;;;;;;;;
1.443928;4952500;224;;;;;;;;;;;;;;
1.446428;4955000;171;;;;;;;;;;;;;;
1.448928;4957500;158;;;;;;;;;;;;;;
1.451428;4960000;158;;;;;;;;;;;;;;
1.453928;4962500;184;;;;;;;;;;;;;;
1.456428;4965000;155;;;;;;;;;;;;;;
1.458928;4967500;142;;;;;;;;;;;;;;
1.461428;4970000;137;;;;;;;;;;;;;;
1.463928;4972500;135;;;;;;;;4973610;-984.697;14.237;73.762;1302.032;-183.23;-300.794
1.466428;4975000;137;4974032;139.6;-485.686;902.928;487.186;-88.255;19.373;;;;;;;
1.468928;4977500;151;;;;;;;;;;;;;;
1.471428;4980000;314;;;;;;;;;;;;;;
1.473928;4982500;234;;;;;;;;;;;;;;
1.476428;4985000;205;;;;;;;;;;;;;;
1.478928;4987500;183;;;;;;;;;;;;;;
1.481428;4990000;140;;;;;;;;;;;;;;
1.483928;4992500;128;;;;;;;;;;;;;;
1.486428;4995000;139;;;;;;;;;;;;;;
1.488928;4997500;173;;;;;;;;;;;;;;
1.491428;5000000;379;;;;;;;;;;;;;;
1.493928;5002500;270;;;;;;;;5003639;-984.719;14.184;73.722;1316.556;-167.943;-308.941
1.496428;5005000;204;5004073;139.494;-485.533;902.933;530.201;-109.655;20.154;;;;;;;
1.498928;5007500;169;;;;;;;;;;;;;;
1.501428;5010000;143;;;;;;;;;;;;;;
1.503928;5012500;154;;;;;;;;;;;;;;
1.506428;5015000;155;;;;;;;;;;;;;;
1.508928;5017500;169;;;;;;;;;;;;;;
1.511428;5020000;183;;;;;;;;;;;;;;
1.513928;5022500;166;;;;;;;;;;;;;;
1.516428;5025000;360;;;;;;;;;;;;;;
1.518928;5027500;250;;;;;;;;;;;;;;
1.521428;5030000;188;;;;;;;;;;;;;;
1.523928;5032500;169;5032813;139.468;-485.529;902.841;541.754;-115.547;22.647;5032378;-984.71;14.243;73.763;1318.978;-163.921;-312.744
1.526428;5035000;142;;;;;;;;;;;;;;
1.528928;5037500;173;;;;;;;;;;;;;;
1.531428;5040000;185;;;;;;;;;;;;;;
1.533928;5042500;185;;;;;;;;;;;;;;
1.536428;5045000;183;;;;;;;;;;;;;;
1.538928;5047500;143;;;;;;;;;;;;;;
1.541428;5050000;296;;;;;;;;;;;;;;
1.543928;5052500;264;;;;;;;;5053723;-984.885;14.226;73.832;1311.654;-157.475;-311.982
1.546428;5055000;202;5054155;139.595;-485.481;902.571;530.854;-109.332;28.077;;;;;;;
1.548928;5057500;189;;;;;;;;;;;;;;
1.551428;5060000;170;;;;;;;;;;;;;;
1.553928;5062500;168;;;;;;;;;;;;;;
1.556428;5065000;182;;;;;;;;;;;;;;
1.558928;5067500;168;;;;;;;;;;;;;;
1.561428;5070000;155;;;;;;;;;;;;;;
1.563928;5072500;135;;;;;;;;;;;;;;
1.566428;5075000;156;;;;;;;;;;;;;;
1.568928;5077500;168;;;;;;;;;;;;;;
1.571428;5080000;40;;;;;;;;;;;;;;
1.573928;5082500;299;;;;;;;;;;;;;;
1.576428;5085000;205;5084269;139.66;-485.906;901.96;478.936;-90.74;32.798;5083839;-984.892;13.936;73.801;1278.446;-145.664;-311.258
1.578928;5087500;171;;;;;;;;;;;;;;
1.581428;5090000;168;;;;;;;;;;;;;;
1.583928;5092500;139;;;;;;;;;;;;;;
1.586428;5095000;156;;;;;;;;;;;;;;
1.588928;5097500;153;;;;;;;;;;;;;;
1.591428;5100000;184;;;;;;;;;;;;;;
1.593928;5102500;168;;;;;;;;;;;;;;
1.596428;5105000;174;;;;;;;;;;;;;;
1.598928;5107500;153;;;;;;;;;;;;;;
1.601428;5110000;223;;;;;;;;;;;;;;
1.603928;5112500;267;5112751;139.656;-485.834;901.63;490.427;-92.328;25.908;5112319;-984.862;13.886;73.899;1279.711;-152.381;-306.195
1.606428;5115000;204;;;;;;;;;;;;;;
1.608928;5117500;187;;;;;;;;;;;;;;
1.611428;5120000;171;;;;;;;;;;;;;;
1.613928;5122500;171;;;;;;;;;;;;;;
1.616428;5125000;184;;;;;;;;;;;;;;
1.618928;5127500;170;;;;;;;;;;;;;;
1.621428;5130000;140;;;;;;;;;;;;;;
1.623928;5132500;135;;;;;;;;5133577;-984.754;14.027;73.961;1303.663;-165.761;-302.698
1.626428;5135000;138;5134007;139.615;-485.405;901.237;524.53;-114.837;18.488;;;;;;;
1.628928;5137500;153;;;;;;;;;;;;;;
1.631428;5140000;330;;;;;;;;;;;;;;
1.633928;5142500;266;;;;;;;;;;;;;;
1.636428;5145000;200;;;;;;;;;;;;;;
1.638928;5147500;159;;;;;;;;;;;;;;
1.641428;5150000;157;;;;;;;;;;;;;;
1.643928;5152500;136;;;;;;;;;;;;;;
1.646428;5155000;137;;;;;;;;;;;;;;
1.648928;5157500;151;;;;;;;;;;;;;;
1.651428;5160000;16;;;;;;;;;;;;;;
1.653928;5162500;300;;;;;;;;5163692;-984.707;13.979;74.039;1289.667;-152.223;-308.563
1.656428;5165000;233;5164124;139.649;-485.291;900.803;498.304;-113.033;23.251;;;;;;;
1.658928;5167500;170;;;;;;;;;;;;;;
1.661428;5170000;142;;;;;;;;;;;;;;
1.663928;5172500;138;;;;;;;;;;;;;;
1.666428;5175000;158;;;;;;;;;;;;;;
1.668928;5177500;170;;;;;;;;;;;;;;
1.671428;5180000;156;;;;;;;;;;;;;;
1.673928;5182500;168;;;;;;;;;;;;;;
1.676428;5185000;183;;;;;;;;;;;;;;
1.678928;5187500;143;;;;;;;;;;;;;;
1.681428;5190000;0;;;;;;;;;;;;;;
1.683928;5192500;281;5192694;139.645;-485.347;900.378;483.889;-108.256;22.963;5192259;-984.674;14.006;74.174;1275.934;-144.612;-311.51
1.686428;5195000;215;;;;;;;;;;;;;;
1.688928;5197500;191;;;;;;;;;;;;;;
1.691428;5200000;172;;;;;;;;;;;;;;
1.693928;5202500;189;;;;;;;;;;;;;;
1.696428;5205000;185;;;;;;;;;;;;;;
1.698928;5207500;173;;;;;;;;;;;;;;
1.701428;5210000;158;;;;;;;;;;;;;;
1.703928;5212500;136;;;;;;;;5213603;-984.71;13.927;74.138;1289.575;-156.194;-308.622
1.706428;5215000;157;5214035;139.592;-485.34;900.042;491.632;-116.843;20.503;;;;;;;
1.708928;5217500;153;;;;;;;;;;;;;;
1.711428;5220000;328;;;;;;;;;;;;;;
1.713928;5222500;267;;;;;;;;;;;;;;
1.716428;5225000;219;;;;;;;;;;;;;;
1.718928;5227500;186;;;;;;;;;;;;;;
1.721428;5230000;142;;;;;;;;;;;;;;
1.723928;5232500;157;;;;;;;;;;;;;;
1.726428;5235000;158;;;;;;;;;;;;;;
1.728928;5237500;152;;;;;;;;;;;;;;
1.731428;5240000;25;;;;;;;;;;;;;;
1.733928;5242500;281;;;;;;;;;;;;;;
1.736428;5245000;206;5244235;139.725;-485.07;899.991;521.3;-137.689;11.602;5243805;-984.568;14.018;74.06;1306.909;-162.822;-307.628
1.738928;5247500;189;;;;;;;;;;;;;;
1.741428;5250000;152;;;;;;;;;;;;;;
1.743928;5252500;157;;;;;;;;;;;;;;
1.746428;5255000;140;;;;;;;;;;;;;;
1.748928;5257500;152;;;;;;;;;;;;;;
1.751428;5260000;185;;;;;;;;;;;;;;
1.753928;5262500;171;;;;;;;;;;;;;;
1.756428;5265000;185;;;;;;;;;;;;;;
1.758928;5267500;172;;;;;;;;;;;;;;
1.761428;5270000;0;;;;;;;;;;;;;;
1.763928;5272500;252;5272978;139.778;-485.052;899.899;521.485;-143.054;9.71;5272546;-984.511;14.122;74.048;1312.438;-159.056;-307.997
1.766428;5275000;186;;;;;;;;;;;;;;
1.768928;5277500;171;;;;;;;;;;;;;;
1.771428;5280000;168;;;;;;;;;;;;;;
1.773928;5282500;168;;;;;;;;;;;;;;
1.776428;5285000;158;;;;;;;;;;;;;;
1.778928;5287500;152;;;;;;;;;;;;;;
1.781428;5290000;154;;;;;;;;;;;;;;
1.783928;5292500;126;;;;;;;;;;;;;;
1.786428;5295000;152;5294233;139.774;-485.041;899.703;499.786;-129.776;15.349;5293803;-984.604;14.026;74.03;1304.129;-159.853;-305.284
1.788928;5297500;151;;;;;;;;;;;;;;
1.791428;5300000;331;;;;;;;;;;;;;;
1.793928;5302500;266;;;;;;;;;;;;;;
1.796428;5305000;216;;;;;;;;;;;;;;
1.798928;5307500;170;;;;;;;;;;;;;;
1.801428;5310000;142;;;;;;;;;;;;;;
1.803928;5312500;137;;;;;;;;;;;;;;
1.806428;5315000;157;;;;;;;;;;;;;;
1.808928;5317500;153;5318546;139.739;-485.201;899.412;493.609;-128.1;17.207;5318115;-984.815;13.99;73.86;1296.235;-156.673;-307.083
1.811428;5320000;347;;;;;;;;;;;;;;
1.813928;5322500;282;;;;;;;;;;;;;;
1.816428;5325000;207;;;;;;;;;;;;;;
1.818928;5327500;171;;;;;;;;;;;;;;
1.821428;5330000;170;;;;;;;;;;;;;;
1.823928;5332500;158;;;;;;;;;;;;;;
1.826428;5335000;137;;;;;;;;;;;;;;
1.828928;5337500;152;;;;;;;;;;;;;;
1.831428;5340000;184;;;;;;;;;;;;;;
1.833928;5342500;188;;;;;;;;;;;;;;
1.836428;5345000;159;5344323;139.712;-485.188;899.209;518.366;-142.258;12.847;5343888;-984.697;13.943;73.778;1311.485;-175.964;-301.791
1.838928;5347500;152;;;;;;;;;;;;;;
1.841428;5350000;349;;;;;;;;;;;;;;
1.843928;5352500;280;;;;;;;;;;;;;;
1.846428;5355000;187;;;;;;;;;;;;;;
1.848928;5357500;169;;;;;;;;;;;;;;
1.851428;5360000;169;;;;;;;;;;;;;;
1.853928;5362500;188;;;;;;;;;;;;;;
1.856428;5365000;160;;;;;;;;;;;;;;
1.858928;5367500;169;;;;;;;;;;;;;;
1.861428;5370000;136;;;;;;;;;;;;;;
1.863928;5372500;136;;;;;;;;;;;;;;
1.866428;5375000;154;5374349;139.852;-484.987;898.925;524.385;-146.957;12.642;5373917;-984.616;13.984;73.816;1321.599;-193.854;-300.701
1.868928;5377500;143;;;;;;;;;;;;;;
1.871428;5380000;360;;;;;;;;;;;;;;
1.873928;5382500;248;;;;;;;;;;;;;;
1.876428;5385000;218;;;;;;;;;;;;;;
1.878928;5387500;184;;;;;;;;;;;;;;
1.881428;5390000;142;;;;;;;;;;;;;;
1.883928;5392500;140;;;;;;;;;;;;;;
1.886428;5395000;138;;;;;;;;;;;;;;
1.888928;5397500;144;;;;;;;;;;;;;;
1.891428;5400000;367;;;;;;;;;;;;;;
1.893928;5402500;286;;;;;;;;;;;;;;
1.896428;5405000;219;5404463;139.862;-485.034;898.649;509.541;-141.359;16.822;5404033;-984.661;13.944;73.889;1314.144;-187.661;-301.854
1.898928;5407500;198;;;;;;;;;;;;;;
1.901428;5410000;153;;;;;;;;;;;;;;
1.903928;5412500;159;;;;;;;;;;;;;;
1.906428;5415000;139;;;;;;;;;;;;;;
1.908928;5417500;169;;;;;;;;;;;;;;
1.911428;5420000;159;;;;;;;;;;;;;;
1.913928;5422500;159;;;;;;;;;;;;;;
1.916428;5425000;382;;;;;;;;;;;;;;
1.918928;5427500;248;;;;;;;;;;;;;;
1.921428;5430000;202;;;;;;;;;;;;;;
1.923928;5432500;143;5433211;139.798;-485.091;898.491;513.814;-143.479;17.731;5432772;-984.533;13.881;73.879;1317.999;-184.403;-304.699
1.926428;5435000;159;;;;;;;;;;;;;;
1.928928;5437500;170;;;;;;;;;;;;;;
1.931428;5440000;158;;;;;;;;;;;;;;
1.933928;5442500;184;;;;;;;;;;;;;;
1.936428;5445000;158;;;;;;;;;;;;;;
1.938928;5447500;153;;;;;;;;;;;;;;
1.941428;5450000;0;;;;;;;;;;;;;;
1.943928;5452500;254;;;;;;;;;;;;;;
1.946428;5455000;185;5454540;139.689;-485.206;898.45;517.873;-146.367;14.219;5454117;-984.57;13.815;73.919;1333.474;-192.245;-302.151
1.948928;5457500;168;;;;;;;;;;;;;;
1.951428;5460000;158;;;;;;;;;;;;;;
1.953928;5462500;168;;;;;;;;;;;;;;
1.956428;5465000;158;;;;;;;;;;;;;;
1.958928;5467500;169;;;;;;;;;;;;;;
1.961428;5470000;138;;;;;;;;;;;;;;
1.963928;5472500;128;;;;;;;;;;;;;;
1.966428;5475000;137;;;;;;;;;;;;;;
1.968928;5477500;151;;;;;;;;;;;;;;
1.971428;5480000;17;;;;;;;;;;;;;;
1.973928;5482500;295;;;;;;;;;;;;;;
1.976428;5485000;236;5484580;139.579;-484.992;898.338;513.855;-140.362;14.821;5484146;-984.654;13.85;74.011;1334.175;-189.195;-301.919
1.978928;5487500;172;;;;;;;;;;;;;;
1.981428;5490000;144;;;;;;;;;;;;;;
1.983928;5492500;156;;;;;;;;;;;;;;
1.986428;5495000;139;;;;;;;;;;;;;;
1.988928;5497500;143;;;;;;;;;;;;;;
1.991428;5500000;159;;;;;;;;;;;;;;
1.993928;5502500;168;;;;;;;;;;;;;;
1.996428;5505000;159;;;;;;;;;;;;;;
1.998928;5507500;170;;;;;;;;;;;;;;
2.001428;5510000;220;;;;;;;;;;;;;;
2.003928;5512500;266;5513141;139.658;-485.075;897.945;493.412;-129.843;23.267;5512713;-984.63;13.981;74.031;1332.654;-183.236;-299.51
2.006428;5515000;186;;;;;;;;;;;;;;
2.008928;5517500;188;;;;;;;;;;;;;;
2.011428;5520000;187;;;;;;;;;;;;;;
2.013928;5522500;187;;;;;;;;;;;;;;
2.016428;5525000;158;;;;;;;;;;;;;;
2.018928;5527500;151;;;;;;;;;;;;;;
2.021428;5530000;154;;;;;;;;;;;;;;
2.023928;5532500;152;;;;;;;;;;;;;;
2.026428;5535000;152;5534491;139.831;-485.148;897.682;481.866;-123.789;27.354;5534057;-984.79;13.917;74.105;1325.959;-178.886;-303.347
2.028928;5537500;141;;;;;;;;;;;;;;
2.031428;5540000;368;;;;;;;;;;;;;;
2.033928;5542500;269;;;;;;;;;;;;;;
2.036428;5545000;217;;;;;;;;;;;;;;
2.038928;5547500;160;;;;;;;;;;;;;;
2.041428;5550000;139;;;;;;;;;;;;;;
2.043928;5552500;154;;;;;;;;;;;;;;
2.046428;5555000;136;;;;;;;;;;;;;;
2.048928;5557500;159;;;;;;;;;;;;;;
2.051428;5560000;0;;;;;;;;;;;;;;
2.053928;5562500;314;;;;;;;;;;;;;;
2.056428;5565000;237;5564509;139.86;-485.175;897.547;482.71;-123.287;29.049;5564086;-984.631;13.91;74.085;1326.598;-181.317;-304.805
2.058928;5567500;172;;;;;;;;;;;;;;
2.061428;5570000;168;;;;;;;;;;;;;;
2.063928;5572500;154;;;;;;;;;;;;;;
2.066428;5575000;152;;;;;;;;;;;;;;
2.068928;5577500;166;;;;;;;;;;;;;;
2.071428;5580000;154;;;;;;;;;;;;;;
2.073928;5582500;185;;;;;;;;;;;;;;
2.076428;5585000;184;;;;;;;;;;;;;;
2.078928;5587500;153;;;;;;;;;;;;;;
2.081428;5590000;0;;;;;;;;;;;;;;
2.083928;5592500;286;5593092;139.73;-484.926;897.358;481.325;-121.935;31.534;5592653;-984.602;13.837;74.095;1329.393;-180.564;-305.315
2.086428;5595000;208;;;;;;;;;;;;;;
2.088928;5597500;171;;;;;;;;;;;;;;
2.091428;5600000;187;;;;;;;;;;;;;;
2.093928;5602500;189;;;;;;;;;;;;;;
2.096428;5605000;168;;;;;;;;;;;;;;
2.098928;5607500;173;;;;;;;;;;;;;;
2.101428;5610000;141;;;;;;;;;;;;;;
2.103928;5612500;152;;;;;;;;;;;;;;
2.106428;5615000;155;5614420;139.728;-485.012;897.063;474.759;-123.276;32.145;5613997;-984.617;13.828;74.099;1330.736;-175.91;-307.111
2.108928;5617500;143;;;;;;;;;;;;;;
2.111428;5620000;365;;;;;;;;;;;;;;
2.113928;5622500;270;;;;;;;;;;;;;;
2.116428;5625000;201;;;;;;;;;;;;;;
2.118928;5627500;168;;;;;;;;;;;;;;
2.121428;5630000;141;;;;;;;;;;;;;;
2.123928;5632500;155;;;;;;;;;;;;;;
2.126428;5635000;154;;;;;;;;;;;;;;
2.128928;5637500;159;;;;;;;;;;;;;;
2.131428;5640000;0;;;;;;;;;;;;;;
2.133928;5642500;294;;;;;;;;;;;;;;
2.136428;5645000;218;5644459;139.878;-484.93;896.892;476.396;-123.674;30.975;5644025;-984.729;13.795;74.201;1325.887;-173.677;-305.756
2.138928;5647500;190;;;;;;;;;;;;;;
2.141428;5650000;140;;;;;;;;;;;;;;
2.143928;5652500;136;;;;;;;;;;;;;;
2.146428;5655000;126;;;;;;;;;;;;;;
2.148928;5657500;166;;;;;;;;;;;;;;
2.151428;5660000;154;;;;;;;;;;;;;;
2.153928;5662500;157;;;;;;;;;;;;;;
2.156428;5665000;158;;;;;;;;;;;;;;
2.158928;5667500;151;;;;;;;;;;;;;;
2.161428;5670000;0;;;;;;;;;;;;;;
2.163928;5672500;266;5673021;139.869;-484.98;896.749;476.201;-127.116;30.739;5672593;-984.714;13.807;74.187;1323.905;-172.869;-305.781
2.166428;5675000;190;;;;;;;;;;;;;;
2.168928;5677500;170;;;;;;;;;;;;;;
2.171428;5680000;168;;;;;;;;;;;;;;
2.173928;5682500;187;;;;;;;;;;;;;;
2.176428;5685000;167;;;;;;;;;;;;;;
2.178928;5687500;152;;;;;;;;;;;;;;
2.181428;5690000;138;;;;;;;;;;;;;;
2.183928;5692500;136;;;;;;;;;;;;;;
2.186428;5695000;138;5694371;139.945;-485.033;896.667;469.016;-123.822;33.577;5693937;-984.662;13.849;74.217;1318.522;-172.1;-307.554
2.188928;5697500;150;;;;;;;;;;;;;;
2.191428;5700000;362;;;;;;;;;;;;;;
2.193928;5702500;249;;;;;;;;;;;;;;
2.196428;5705000;218;;;;;;;;;;;;;;
2.198928;5707500;166;;;;;;;;;;;;;;
2.201428;5710000;159;;;;;;;;;;;;;;
2.203928;5712500;153;;;;;;;;;;;;;;
2.206428;5715000;135;;;;;;;;;;;;;;
2.208928;5717500;166;5718671;139.926;-485.114;896.455;463.065;-122.881;36.273;5718248;-984.577;13.98;74.185;1316.909;-173.12;-307.489
2.211428;5720000;0;;;;;;;;;;;;;;
2.213928;5722500;314;;;;;;;;;;;;;;
2.216428;5725000;237;;;;;;;;;;;;;;
2.218928;5727500;189;;;;;;;;;;;;;;
2.221428;5730000;167;;;;;;;;;;;;;;
2.223928;5732500;135;;;;;;;;;;;;;;
2.226428;5735000;153;;;;;;;;;;;;;;
2.228928;5737500;158;;;;;;;;;;;;;;
2.231428;5740000;156;;;;;;;;;;;;;;
2.233928;5742500;185;;;;;;;;;;;;;;
2.236428;5745000;175;5744286;139.878;-485.088;896.211;460.912;-121.112;37.522;5743848;-984.483;13.988;74.203;1315.813;-174.527;-306.989
2.238928;5747500;168;;;;;;;;;;;;;;
2.241428;5750000;0;;;;;;;;;;;;;;
2.243928;5752500;268;;;;;;;;;;;;;;
2.246428;5755000;205;;;;;;;;;;;;;;
2.248928;5757500;169;;;;;;;;;;;;;;
2.251428;5760000;186;;;;;;;;;;;;;;
2.253928;5762500;186;;;;;;;;;;;;;;
2.256428;5765000;184;;;;;;;;;;;;;;
2.258928;5767500;171;;;;;;;;;;;;;;
2.261428;5770000;138;;;;;;;;;;;;;;
2.263928;5772500;152;;;;;;;;;;;;;;
2.266428;5775000;153;5774299;139.862;-484.947;896.107;462.804;-119.869;38.708;5773877;-984.505;14.058;74.281;1318.71;-172.8;-310.89
2.268928;5777500;167;;;;;;;;;;;;;;
2.271428;5780000;360;;;;;;;;;;;;;;
2.273928;5782500;266;;;;;;;;;;;;;;
2.276428;5785000;192;;;;;;;;;;;;;;
2.278928;5787500;185;;;;;;;;;;;;;;
2.281428;5790000;143;;;;;;;;;;;;;;
2.283928;5792500;137;;;;;;;;;;;;;;
2.286428;5795000;136;;;;;;;;;;;;;;
2.288928;5797500;159;;;;;;;;;;;;;;
2.291428;5800000;7;;;;;;;;;;;;;;
2.293928;5802500;312;;;;;;;;;;;;;;
2.296428;5805000;218;5804340;139.781;-485.215;896.009;461.976;-124.813;38.96;5803906;-984.512;14.068;74.281;1318.837;-171.16;-315.908
2.298928;5807500;171;;;;;;;;;;;;;;
2.301428;5810000;160;;;;;;;;;;;;;;
2.303928;5812500;126;;;;;;;;;;;;;;
2.306428;5815000;152;;;;;;;;;;;;;;
2.308928;5817500;140;;;;;;;;;;;;;;
2.311428;5820000;152;;;;;;;;;;;;;;
2.313928;5822500;183;;;;;;;;;;;;;;
2.316428;5825000;375;;;;;;;;;;;;;;
2.318928;5827500;268;;;;;;;;;;;;;;
2.321428;5830000;175;;;;;;;;;;;;;;
2.323928;5832500;142;5833081;139.74;-485.208;896.117;466.002;-122.073;43.137;5832646;-984.428;14.067;74.172;1313.27;-166.102;-316.737
2.326428;5835000;136;;;;;;;;;;;;;;
2.328928;5837500;140;;;;;;;;;;;;;;
2.331428;5840000;152;;;;;;;;;;;;;;
2.333928;5842500;158;;;;;;;;;;;;;;
2.336428;5845000;156;;;;;;;;;;;;;;
2.338928;5847500;151;;;;;;;;;;;;;;
2.341428;5850000;0;;;;;;;;;;;;;;
2.343928;5852500;253;;;;;;;;;;;;;;
2.346428;5855000;184;5854422;139.7;-485.214;896.188;465.452;-121.656;46.668;5853991;-984.44;14.095;74.051;1311.919;-162.61;-317.963
2.348928;5857500;159;;;;;;;;;;;;;;
2.351428;5860000;184;;;;;;;;;;;;;;
2.353928;5862500;169;;;;;;;;;;;;;;
2.356428;5865000;183;;;;;;;;;;;;;;
2.358928;5867500;153;;;;;;;;;;;;;;
2.361428;5870000;136;;;;;;;;;;;;;;
2.363928;5872500;152;;;;;;;;;;;;;;
2.366428;5875000;154;;;;;;;;;;;;;;
2.368928;5877500;139;;;;;;;;;;;;;;
2.371428;5880000;0;;;;;;;;;;;;;;
2.373928;5882500;302;;;;;;;;;;;;;;
2.376428;5885000;218;5884623;139.645;-485.225;896.287;464.492;-117.761;46.96;5884193;-984.506;14.196;74.222;1306.698;-158.854;-321.315
2.378928;5887500;173;;;;;;;;;;;;;;
2.381428;5890000;141;;;;;;;;;;;;;;
2.383928;5892500;152;;;;;;;;;;;;;;
2.386428;5895000;152;;;;;;;;;;;;;;
2.388928;5897500;140;;;;;;;;;;;;;;
2.391428;5900000;171;;;;;;;;;;;;;;
2.393928;5902500;183;;;;;;;;;;;;;;
2.396428;5905000;156;;;;;;;;;;;;;;
2.398928;5907500;170;;;;;;;;;;;;;;
2.401428;5910000;303;;;;;;;;;;;;;;
2.403928;5912500;279;5913365;139.757;-485.345;896.1;459.642;-114.498;51.174;5912934;-984.447;14.126;74.311;1307.426;-157.474;-321.437
2.406428;5915000;183;;;;;;;;;;;;;;
2.408928;5917500;159;;;;;;;;;;;;;;
2.411428;5920000;183;;;;;;;;;;;;;;
2.413928;5922500;168;;;;;;;;;;;;;;
2.416428;5925000;184;;;;;;;;;;;;;;
2.418928;5927500;154;;;;;;;;;;;;;;
2.421428;5930000;156;;;;;;;;;;;;;;
2.423928;5932500;153;;;;;;;;;;;;;;
2.426428;5935000;156;5934708;139.76;-485.264;895.893;462.035;-114.461;49.49;5934278;-984.488;14.158;74.328;1312.929;-158.788;-326.365
2.428928;5937500;158;;;;;;;;;;;;;;
2.431428;5940000;344;;;;;;;;;;;;;;
2.433928;5942500;267;;;;;;;;;;;;;;
2.436428;5945000;216;;;;;;;;;;;;;;
2.438928;5947500;166;;;;;;;;;;;;;;
2.441428;5950000;158;;;;;;;;;;;;;;
2.443928;5952500;136;;;;;;;;;;;;;;
2.446428;5955000;136;;;;;;;;;;;;;;
2.448928;5957500;159;;;;;;;;;;;;;;
2.451428;5960000;255;;;;;;;;;;;;;;
2.453928;5962500;311;;;;;;;;;;;;;;
2.456428;5965000;220;5964912;139.799;-485.267;895.567;462.996;-117.488;48.328;5964480;-984.625;14.121;74.278;1310.283;-157.411;-324.922
2.458928;5967500;175;;;;;;;;;;;;;;
2.461428;5970000;152;;;;;;;;;;;;;;
2.463928;5972500;136;;;;;;;;;;;;;;
2.466428;5975000;154;;;;;;;;;;;;;;
2.468928;5977500;158;;;;;;;;;;;;;;
2.471428;5980000;172;;;;;;;;;;;;;;
2.473928;5982500;165;;;;;;;;;;;;;;
2.476428;5985000;166;;;;;;;;;;;;;;
2.478928;5987500;172;;;;;;;;;;;;;;
2.481428;5990000;140;;;;;;;;;;;;;;
2.483928;5992500;270;5993656;139.757;-485.343;895.538;464.784;-120.801;44.599;5993221;-984.718;14.202;74.389;1315.206;-156.54;-321.801
2.486428;5995000;189;;;;;;;;;;;;;;
2.488928;5997500;168;;;;;;;;;;;;;;
2.491428;6000000;186;;;;;;;;;;;;;;
2.493928;6002500;168;;;;;;;;;;;;;;
2.496428;6005000;158;;;;;;;;;;;;;;
2.498928;6007500;155;;;;;;;;;;;;;;
2.501428;6010000;140;;;;;;;;;;;;;;
2.503928;6012500;152;;;;;;;;;;;;;;
2.506428;6015000;153;6014996;139.815;-485.36;895.407;460.794;-121.761;45.869;6014565;-984.734;14.236;74.378;1326.446;-161.401;-320.585
2.508928;6017500;137;;;;;;;;;;;;;;
2.511428;6020000;352;;;;;;;;;;;;;;
2.513928;6022500;254;;;;;;;;;;;;;;
2.516428;6025000;220;;;;;;;;;;;;;;
2.518928;6027500;170;;;;;;;;;;;;;;
2.521428;6030000;140;;;;;;;;;;;;;;
2.523928;6032500;127;;;;;;;;;;;;;;
2.526428;6035000;135;;;;;;;;;;;;;;
2.528928;6037500;158;;;;;;;;;;;;;;
2.531428;6040000;173;;;;;;;;;;;;;;
2.533928;6042500;327;;;;;;;;;;;;;;
2.536428;6045000;230;6045196;139.778;-485.394;895.283;455.692;-121.36;46.638;6044766;-984.791;14.342;74.423;1323.561;-157.706;-322.494
2.538928;6047500;184;;;;;;;;;;;;;;
2.541428;6050000;170;;;;;;;;;;;;;;
2.543928;6052500;158;;;;;;;;;;;;;;
2.546428;6055000;152;;;;;;;;;;;;;;
2.548928;6057500;158;;;;;;;;;;;;;;
2.551428;6060000;170;;;;;;;;;;;;;;
2.553928;6062500;159;;;;;;;;;;;;;;
2.556428;6065000;157;;;;;;;;;;;;;;
2.558928;6067500;154;;;;;;;;;;;;;;
2.561428;6070000;139;;;;;;;;;;;;;;
2.563928;6072500;311;;;;;;;;6073508;-984.699;14.308;74.417;1321.258;-157.695;-323.869
2.566428;6075000;198;6073939;139.767;-485.408;895.237;455.658;-118.792;45.619;;;;;;;
2.568928;6077500;186;;;;;;;;;;;;;;
2.571428;6080000;184;;;;;;;;;;;;;;
2.573928;6082500;187;;;;;;;;;;;;;;
2.576428;6085000;186;;;;;;;;;;;;;;
2.578928;6087500;156;;;;;;;;;;;;;;
2.581428;6090000;167;;;;;;;;;;;;;;
2.583928;6092500;154;;;;;;;;;;;;;;
2.586428;6095000;154;6095282;139.8;-485.422;895.06;454.312;-118.54;47.276;6094852;-984.734;14.288;74.454;1323.445;-156.811;-323.426
2.588928;6097500;165;;;;;;;;;;;;;;
2.591428;6100000;392;;;;;;;;;;;;;;
2.593928;6102500;284;;;;;;;;;;;;;;
2.596428;6105000;205;;;;;;;;;;;;;;
2.598928;6107500;172;;;;;;;;;;;;;;
2.601428;6110000;169;;;;;;;;;;;;;;
2.603928;6112500;134;;;;;;;;;;;;;;
2.606428;6115000;153;;;;;;;;;;;;;;
2.608928;6117500;157;;;;;;;;;;;;;;
2.611428;6120000;153;6119595;139.831;-485.453;894.929;451.722;-117.426;47.537;6119163;-984.907;14.324;74.397;1325.085;-158.595;-323.004
2.613928;6122500;334;;;;;;;;;;;;;;
2.616428;6125000;233;;;;;;;;;;;;;;
2.618928;6127500;203;;;;;;;;;;;;;;
2.621428;6130000;171;;;;;;;;;;;;;;
2.623928;6132500;139;;;;;;;;;;;;;;
2.626428;6135000;154;;;;;;;;;;;;;;
2.628928;6137500;138;;;;;;;;;;;;;;
2.631428;6140000;173;;;;;;;;;;;;;;
2.633928;6142500;167;;;;;;;;;;;;;;
2.636428;6145000;185;6145372;139.934;-485.361;894.859;457.136;-121.179;48.222;6144936;-984.81;14.303;74.532;1326.643;-158.978;-322.604
2.638928;6147500;154;;;;;;;;;;;;;;
2.641428;6150000;140;;;;;;;;;;;;;;
2.643928;6152500;318;;;;;;;;;;;;;;
2.646428;6155000;202;;;;;;;;;;;;;;
2.648928;6157500;169;;;;;;;;;;;;;;
2.651428;6160000;169;;;;;;;;;;;;;;
2.653928;6162500;169;;;;;;;;;;;;;;
2.656428;6165000;185;;;;;;;;;;;;;;
2.658928;6167500;157;;;;;;;;;;;;;;
2.661428;6170000;150;;;;;;;;;;;;;;
2.663928;6172500;136;;;;;;;;;;;;;;
2.666428;6175000;136;6175397;139.885;-485.377;894.792;457.466;-122.12;48.874;6174965;-984.851;14.247;74.539;1328.124;-161.967;-325.286
2.668928;6177500;158;;;;;;;;;;;;;;
2.671428;6180000;345;;;;;;;;;;;;;;
2.673928;6182500;269;;;;;;;;;;;;;;
2.676428;6185000;206;;;;;;;;;;;;;;
2.678928;6187500;172;;;;;;;;;;;;;;
2.681428;6190000;170;;;;;;;;;;;;;;
2.683928;6192500;153;;;;;;;;;;;;;;
2.686428;6195000;136;;;;;;;;;;;;;;
2.688928;6197500;139;;;;;;;;;;;;;;
2.691428;6200000;154;;;;;;;;;;;;;;
2.693928;6202500;348;;;;;;;;;;;;;;
2.696428;6205000;238;6205603;139.955;-485.435;894.723;456.905;-124.327;47.305;6205168;-984.939;14.218;74.582;1331.718;-160.868;-325.21
2.698928;6207500;206;;;;;;;;;;;;;;
2.701428;6210000;153;;;;;;;;;;;;;;
2.703928;6212500;137;;;;;;;;;;;;;;
2.706428;6215000;153;;;;;;;;;;;;;;
2.708928;6217500;138;;;;;;;;;;;;;;
2.711428;6220000;153;;;;;;;;;;;;;;
2.713928;6222500;164;;;;;;;;;;;;;;
2.716428;6225000;0;;;;;;;;;;;;;;
2.718928;6227500;284;;;;;;;;;;;;;;
2.721428;6230000;199;;;;;;;;;;;;;;
2.723928;6232500;153;;;;;;;;;;;;;;
2.726428;6235000;159;6234341;139.984;-485.46;894.712;457.685;-128.173;43.627;6233907;-984.907;14.306;74.598;1330.757;-160.7;-325.137
2.728928;6237500;159;;;;;;;;;;;;;;
2.731428;6240000;152;;;;;;;;;;;;;;
2.733928;6242500;183;;;;;;;;;;;;;;
2.736428;6245000;184;;;;;;;;;;;;;;
2.738928;6247500;154;;;;;;;;;;;;;;
2.741428;6250000;157;;;;;;;;;;;;;;
2.743928;6252500;314;;;;;;;;;;;;;;
2.746428;6255000;230;6255680;140.043;-485.404;894.519;453.613;-128.327;42.759;6255253;-984.846;14.353;74.546;1332.031;-160.977;-325.505
2.748928;6257500;187;;;;;;;;;;;;;;
2.751428;6260000;185;;;;;;;;;;;;;;
2.753928;6262500;187;;;;;;;;;;;;;;
2.756428;6265000;160;;;;;;;;;;;;;;
2.758928;6267500;156;;;;;;;;;;;;;;
2.761428;6270000;140;;;;;;;;;;;;;;
2.763928;6272500;136;;;;;;;;;;;;;;
2.766428;6275000;152;;;;;;;;;;;;;;
2.768928;6277500;141;;;;;;;;;;;;;;
2.771428;6280000;155;;;;;;;;;;;;;;
2.773928;6282500;349;;;;;;;;;;;;;;
2.776428;6285000;239;6285715;140.165;-485.247;894.469;455.87;-124.973;42.808;6285281;-984.733;14.343;74.638;1331.93;-163.428;-323.667
2.778928;6287500;206;;;;;;;;;;;;;;
2.781428;6290000;155;;;;;;;;;;;;;;
2.783928;6292500;156;;;;;;;;;;;;;;
2.786428;6295000;137;;;;;;;;;;;;;;
2.788928;6297500;158;;;;;;;;;;;;;;
2.791428;6300000;171;;;;;;;;;;;;;;
2.793928;6302500;158;;;;;;;;;;;;;;
2.796428;6305000;176;;;;;;;;;;;;;;
2.798928;6307500;173;;;;;;;;;;;;;;
2.801428;6310000;141;;;;;;;;;;;;;;
2.803928;6312500;330;;;;;;;;;;;;;;
2.806428;6315000;215;6314444;140.245;-485.329;894.385;455.389;-124.849;42.418;6314022;-984.76;14.394;74.609;1328.771;-160.507;-324.984
2.808928;6317500;168;;;;;;;;;;;;;;
2.811428;6320000;159;;;;;;;;;;;;;;
2.813928;6322500;184;;;;;;;;;;;;;;
2.816428;6325000;167;;;;;;;;;;;;;;
2.818928;6327500;154;;;;;;;;;;;;;;
2.821428;6330000;168;;;;;;;;;;;;;;
2.823928;6332500;136;;;;;;;;;;;;;;
2.826428;6335000;153;6335805;140.156;-485.329;894.269;457.557;-126.919;41.609;6335366;-984.67;14.291;74.502;1329.27;-159.919;-326.672
2.828928;6337500;139;;;;;;;;;;;;;;
2.831428;6340000;0;;;;;;;;;;;;;;
2.833928;6342500;311;;;;;;;;;;;;;;
2.836428;6345000;237;;;;;;;;;;;;;;
2.838928;6347500;200;;;;;;;;;;;;;;
2.841428;6350000;155;;;;;;;;;;;;;;
2.843928;6352500;139;;;;;;;;;;;;;;
2.846428;6355000;156;;;;;;;;;;;;;;
2.848928;6357500;139;;;;;;;;;;;;;;
2.851428;6360000;170;;;;;;;;;;;;;;
2.853928;6362500;346;;;;;;;;;;;;;;
2.856428;6365000;250;6365817;140.249;-485.316;894.141;457.429;-129.761;39.529;6365395;-984.718;14.351;74.534;1333.681;-161.111;-326.088
2.858928;6367500;215;;;;;;;;;;;;;;
2.861428;6370000;158;;;;;;;;;;;;;;
2.863928;6372500;137;;;;;;;;;;;;;;
2.866428;6375000;135;;;;;;;;;;;;;;
2.868928;6377500;137;;;;;;;;;;;;;;
2.871428;6380000;172;;;;;;;;;;;;;;
2.873928;6382500;158;;;;;;;;;;;;;;
2.876428;6385000;185;;;;;;;;;;;;;;
2.878928;6387500;157;;;;;;;;;;;;;;
2.881428;6390000;140;;;;;;;;;;;;;;
2.883928;6392500;350;;;;;;;;;;;;;;
2.886428;6395000;218;6394570;140.221;-485.328;894.0;455.558;-128.523;38.865;6394136;-984.727;14.31;74.553;1333.934;-160.493;-326.409
2.888928;6397500;170;;;;;;;;;;;;;;
2.891428;6400000;158;;;;;;;;;;;;;;
2.893928;6402500;185;;;;;;;;;;;;;;
2.896428;6405000;168;;;;;;;;;;;;;;
2.898928;6407500;175;;;;;;;;;;;;;;
2.901428;6410000;142;;;;;;;;;;;;;;
2.903928;6412500;128;;;;;;;;;;;;;;
2.906428;6415000;153;6415907;140.14;-485.437;893.903;452.03;-130.409;39.547;6415480;-984.742;14.29;74.564;1332.863;-161.218;-325.839
2.908928;6417500;137;;;;;;;;;;;;;;
2.911428;6420000;2;;;;;;;;;;;;;;
2.913928;6422500;296;;;;;;;;;;;;;;
2.916428;6425000;239;;;;;;;;;;;;;;
2.918928;6427500;202;;;;;;;;;;;;;;
2.921428;6430000;154;;;;;;;;;;;;;;
2.923928;6432500;154;;;;;;;;;;;;;;
2.926428;6435000;152;;;;;;;;;;;;;;
2.928928;6437500;138;;;;;;;;;;;;;;
2.931428;6440000;171;;;;;;;;;;;;;;
2.933928;6442500;351;;;;;;;;;;;;;;
2.936428;6445000;253;6445941;140.105;-485.511;893.915;449.116;-129.576;41.944;6445507;-984.708;14.277;74.502;1336.219;-160.157;-323.984
2.938928;6447500;216;;;;;;;;;;;;;;
2.941428;6450000;175;;;;;;;;;;;;;;
2.943928;6452500;158;;;;;;;;;;;;;;
2.946428;6455000;135;;;;;;;;;;;;;;
2.948928;6457500;156;;;;;;;;;;;;;;
2.951428;6460000;169;;;;;;;;;;;;;;
2.953928;6462500;155;;;;;;;;;;;;;;
2.956428;6465000;182;;;;;;;;;;;;;;
2.958928;6467500;155;;;;;;;;;;;;;;
2.961428;6470000;140;;;;;;;;;;;;;;
2.963928;6472500;345;;;;;;;;;;;;;;
2.966428;6475000;238;6474677;140.035;-485.422;893.951;450.723;-129.222;39.41;6474249;-984.651;14.222;74.413;1331.971;-158.274;-323.535
2.968928;6477500;190;;;;;;;;;;;;;;
2.971428;6480000;160;;;;;;;;;;;;;;
2.973928;6482500;186;;;;;;;;;;;;;;
2.976428;6485000;185;;;;;;;;;;;;;;
2.978928;6487500;156;;;;;;;;;;;;;;
2.981428;6490000;142;;;;;;;;;;;;;;
2.983928;6492500;136;;;;;;;;;;;;;;
2.986428;6495000;136;6496027;139.908;-485.404;894.009;447.437;-127.574;37.877;6495593;-984.621;14.213;74.334;1332.747;-157.798;-321.358
2.988928;6497500;139;;;;;;;;;;;;;;
2.991428;6500000;0;;;;;;;;;;;;;;
2.993928;6502500;298;;;;;;;;;;;;;;
2.996428;6505000;222;;;;;;;;;;;;;;
2.998928;6507500;203;;;;;;;;;;;;;;
3.001428;6510000;155;;;;;;;;;;;;;;
3.003928;6512500;155;;;;;;;;;;;;;;
3.006428;6515000;128;;;;;;;;;;;;;;
3.008928;6517500;139;;;;;;;;;;;;;;
3.011428;6520000;170;6520327;139.916;-485.491;893.838;447.377;-129.508;41.233;6519904;-984.623;14.204;74.32;1333.485;-161.283;-320.603
3.013928;6522500;360;;;;;;;;;;;;;;
3.016428;6525000;256;;;;;;;;;;;;;;
3.018928;6527500;200;;;;;;;;;;;;;;
3.021428;6530000;160;;;;;;;;;;;;;;
3.023928;6532500;140;;;;;;;;;;;;;;
3.026428;6535000;128;;;;;;;;;;;;;;
3.028928;6537500;137;;;;;;;;;;;;;;
3.031428;6540000;153;;;;;;;;;;;;;;
3.033928;6542500;157;;;;;;;;;;;;;;
3.036428;6545000;160;6546116;139.886;-485.452;893.866;451.258;-129.157;38.734;6545677;-984.716;14.256;74.374;1336.373;-158.906;-324.26
3.038928;6547500;173;;;;;;;;;;;;;;
3.041428;6550000;141;;;;;;;;;;;;;;
3.043928;6552500;349;;;;;;;;;;;;;;
3.046428;6555000;223;;;;;;;;;;;;;;
3.048928;6557500;192;;;;;;;;;;;;;;
3.051428;6560000;169;;;;;;;;;;;;;;
3.053928;6562500;169;;;;;;;;;;;;;;
3.056428;6565000;169;;;;;;;;;;;;;;
3.058928;6567500;155;;;;;;;;;;;;;;
3.061428;6570000;168;;;;;;;;;;;;;;
3.063928;6572500;155;;;;;;;;;;;;;;
3.066428;6575000;143;;;;;;;;6575880;-984.671;14.342;74.4;1328.18;-158.399;-325.11
3.068928;6577500;138;6576303;139.876;-485.451;893.836;453.195;-129.699;34.609;;;;;;;
3.071428;6580000;170;;;;;;;;;;;;;;
3.073928;6582500;318;;;;;;;;;;;;;;
3.076428;6585000;249;;;;;;;;;;;;;;
3.078928;6587500;186;;;;;;;;;;;;;;
3.081428;6590000;154;;;;;;;;;;;;;;
3.083928;6592500;157;;;;;;;;;;;;;;
3.086428;6595000;136;;;;;;;;;;;;;;
3.088928;6597500;156;;;;;;;;;;;;;;
3.091428;6600000;169;;;;;;;;;;;;;;
3.093928;6602500;364;;;;;;;;;;;;;;
3.096428;6605000;281;;;;;;;;6606083;-984.707;14.381;74.383;1329.146;-157.479;-324.604
3.098928;6607500;200;6606522;139.952;-485.597;893.754;450.661;-126.714;36.379;;;;;;;
3.101428;6610000;176;;;;;;;;;;;;;;
3.103928;6612500;139;;;;;;;;;;;;;;
3.106428;6615000;154;;;;;;;;;;;;;;
3.108928;6617500;155;;;;;;;;;;;;;;
3.111428;6620000;153;;;;;;;;;;;;;;
3.113928;6622500;175;;;;;;;;;;;;;;
3.116428;6625000;183;;;;;;;;;;;;;;
3.118928;6627500;346;;;;;;;;;;;;;;
3.121428;6630000;237;;;;;;;;;;;;;;
3.123928;6632500;186;;;;;;;;;;;;;;
3.126428;6635000;158;6635078;139.939;-485.546;893.663;450.003;-125.191;39.373;6634648;-984.815;14.388;74.36;1327.876;-155.73;-324.561
3.128928;6637500;139;;;;;;;;;;;;;;
3.131428;6640000;169;;;;;;;;;;;;;;
3.133928;6642500;182;;;;;;;;;;;;;;
3.136428;6645000;158;;;;;;;;;;;;;;
3.138928;6647500;174;;;;;;;;;;;;;;
3.141428;6650000;169;;;;;;;;;;;;;;
3.143928;6652500;362;;;;;;;;;;;;;;
3.146428;6655000;251;;;;;;;;6655994;-984.929;14.309;74.394;1332.357;-155.818;-325.396
3.148928;6657500;173;6656425;139.866;-485.529;893.51;447.19;-125.057;42.216;;;;;;;
3.151428;6660000;184;;;;;;;;;;;;;;
3.153928;6662500;186;;;;;;;;;;;;;;
3.156428;6665000;168;;;;;;;;;;;;;;
3.158928;6667500;158;;;;;;;;;;;;;;
3.161428;6670000;144;;;;;;;;;;;;;;
3.163928;6672500;154;;;;;;;;;;;;;;
3.166428;6675000;152;;;;;;;;;;;;;;
3.168928;6677500;137;;;;;;;;;;;;;;
3.171428;6680000;153;;;;;;;;;;;;;;
3.173928;6682500;379;;;;;;;;;;;;;;
3.176428;6685000;288;;;;;;;;6686196;-984.995;14.289;74.401;1326.114;-153.715;-325.751
3.178928;6687500;203;6686626;139.961;-485.512;893.499;444.518;-122.741;43.606;;;;;;;
3.181428;6690000;186;;;;;;;;;;;;;;
3.183928;6692500;141;;;;;;;;;;;;;;
3.186428;6695000;138;;;;;;;;;;;;;;
3.188928;6697500;158;;;;;;;;;;;;;;
3.191428;6700000;153;;;;;;;;;;;;;;
3.193928;6702500;171;;;;;;;;;;;;;;
3.196428;6705000;158;;;;;;;;;;;;;;
3.198928;6707500;155;;;;;;;;;;;;;;
3.201428;6710000;167;;;;;;;;;;;;;;
3.203928;6712500;0;;;;;;;;;;;;;;
3.206428;6715000;238;6715282;139.972;-485.502;893.488;446.792;-121.417;42.3;6714850;-985.009;14.301;74.408;1326.308;-152.592;-323.901
3.208928;6717500;182;;;;;;;;;;;;;;
3.211428;6720000;160;;;;;;;;;;;;;;
3.213928;6722500;183;;;;;;;;;;;;;;
3.216428;6725000;159;;;;;;;;;;;;;;
3.218928;6727500;155;;;;;;;;;;;;;;
3.221428;6730000;139;;;;;;;;;;;;;;
3.223928;6732500;126;;;;;;;;;;;;;;
3.226428;6735000;142;;;;;;;;6736194;-984.936;14.293;74.348;1323.868;-152.837;-324.331
3.228928;6737500;153;6736629;140.128;-485.487;893.399;451.14;-121.908;38.873;;;;;;;
3.231428;6740000;142;;;;;;;;;;;;;;
3.233928;6742500;315;;;;;;;;;;;;;;
3.236428;6745000;235;;;;;;;;;;;;;;
3.238928;6747500;214;;;;;;;;;;;;;;
3.241428;6750000;159;;;;;;;;;;;;;;
3.243928;6752500;140;;;;;;;;;;;;;;
3.246428;6755000;135;;;;;;;;;;;;;;
3.248928;6757500;154;;;;;;;;;;;;;;
3.251428;6760000;142;;;;;;;;;;;;;;
3.253928;6762500;233;;;;;;;;;;;;;;
3.256428;6765000;287;;;;;;;;6766223;-984.868;14.213;74.303;1325.05;-154.383;-325.614
3.258928;6767500;205;6766655;140.161;-485.442;893.277;455.708;-123.25;37.804;;;;;;;
3.261428;6770000;183;;;;;;;;;;;;;;
3.263928;6772500;140;;;;;;;;;;;;;;
3.266428;6775000;125;;;;;;;;;;;;;;
3.268928;6777500;154;;;;;;;;;;;;;;
3.271428;6780000;140;;;;;;;;;;;;;;
3.273928;6782500;173;;;;;;;;;;;;;;
3.276428;6785000;159;;;;;;;;;;;;;;
3.278928;6787500;174;;;;;;;;;;;;;;
3.281428;6790000;158;;;;;;;;;;;;;;
3.283928;6792500;88;;;;;;;;;;;;;;
3.286428;6795000;268;6795220;140.302;-485.569;893.161;450.86;-121.9;36.351;6794790;-984.894;14.173;74.272;1325.297;-155.414;-326.396
3.288928;6797500;183;;;;;;;;;;;;;;
3.291428;6800000;166;;;;;;;;;;;;;;
3.293928;6802500;167;;;;;;;;;;;;;;
3.296428;6805000;185;;;;;;;;;;;;;;
3.298928;6807500;183;;;;;;;;;;;;;;
3.301428;6810000;142;;;;;;;;;;;;;;
3.303928;6812500;155;;;;;;;;;;;;;;
3.306428;6815000;135;;;;;;;;6816134;-984.773;14.117;74.322;1321.595;-155.08;-323.639
3.308928;6817500;154;6816565;140.375;-485.465;893.076;448.005;-122.368;39.346;;;;;;;
3.311428;6820000;170;;;;;;;;;;;;;;
3.313928;6822500;330;;;;;;;;;;;;;;
3.316428;6825000;264;;;;;;;;;;;;;;
3.318928;6827500;214;;;;;;;;;;;;;;
3.321428;6830000;156;;;;;;;;;;;;;;
3.323928;6832500;157;;;;;;;;;;;;;;
3.326428;6835000;135;;;;;;;;;;;;;;
3.328928;6837500;138;;;;;;;;;;;;;;
3.331428;6840000;168;;;;;;;;;;;;;;
3.333928;6842500;0;;;;;;;;;;;;;;
3.336428;6845000;280;;;;;;;;;;;;;;
3.338928;6847500;207;6846765;140.311;-485.525;893.019;444.417;-121.062;40.004;6846335;-984.712;14.113;74.406;1322.89;-155.201;-321.019
3.341428;6850000;168;;;;;;;;;;;;;;
3.343928;6852500;141;;;;;;;;;;;;;;
3.346428;6855000;136;;;;;;;;;;;;;;
3.348928;6857500;140;;;;;;;;;;;;;;
3.351428;6860000;152;;;;;;;;;;;;;;
3.353928;6862500;174;;;;;;;;;;;;;;
3.356428;6865000;167;;;;;;;;;;;;;;
3.358928;6867500;160;;;;;;;;;;;;;;
3.361428;6870000;141;;;;;;;;;;;;;;
3.363928;6872500;0;;;;;;;;;;;;;;
3.366428;6875000;269;6875508;140.396;-485.502;893.039;444.071;-122.884;40.629;6875077;-984.594;14.139;74.377;1322.808;-154.004;-319.406
3.368928;6877500;205;;;;;;;;;;;;;;
3.371428;6880000;170;;;;;;;;;;;;;;
3.373928;6882500;160;;;;;;;;;;;;;;
3.376428;6885000;159;;;;;;;;;;;;;;
3.378928;6887500;174;;;;;;;;;;;;;;
3.381428;6890000;141;;;;;;;;;;;;;;
3.383928;6892500;136;;;;;;;;;;;;;;
3.386428;6895000;136;;;;;;;;;;;;;;
3.388928;6897500;138;;;;;;;;;;;;;;
3.391428;6900000;144;;;;;;;;;;;;;;
3.393928;6902500;347;;;;;;;;;;;;;;
3.396428;6905000;254;6905710;140.403;-485.511;893.014;445.93;-120.24;38.16;6905280;-984.549;14.207;74.318;1319.668;-151.116;-319.623
3.398928;6907500;189;;;;;;;;;;;;;;
3.401428;6910000;158;;;;;;;;;;;;;;
3.403928;6912500;158;;;;;;;;;;;;;;
3.406428;6915000;133;;;;;;;;;;;;;;
3.408928;6917500;136;;;;;;;;;;;;;;
3.411428;6920000;169;;;;;;;;;;;;;;
3.413928;6922500;206;;;;;;;;;;;;;;
3.416428;6925000;281;;;;;;;;;;;;;;
3.418928;6927500;232;;;;;;;;;;;;;;
3.421428;6930000;168;;;;;;;;;;;;;;
3.423928;6932500;139;;;;;;;;;;;;;;
3.426428;6935000;151;6935915;140.276;-485.434;893.022;443.758;-119.915;38.439;6935481;-984.56;14.149;74.292;1324.997;-150.998;-320.267
3.428928;6937500;137;;;;;;;;;;;;;;
3.431428;6940000;142;;;;;;;;;;;;;;
3.433928;6942500;176;;;;;;;;;;;;;;
3.436428;6945000;158;;;;;;;;;;;;;;
3.438928;6947500;183;;;;;;;;;;;;;;
3.441428;6950000;169;;;;;;;;;;;;;;
3.443928;6952500;303;;;;;;;;;;;;;;
3.446428;6955000;280;;;;;;;;;;;;;;
3.448928;6957500;211;;;;;;;;;;;;;;
3.451428;6960000;184;;;;;;;;;;;;;;
3.453928;6962500;170;;;;;;;;;;;;;;
3.456428;6965000;188;6966119;140.271;-485.502;892.992;441.258;-120.044;39.142;6965684;-984.59;14.156;74.262;1329.622;-149.573;-320.004
3.458928;6967500;185;;;;;;;;;;;;;;
3.461428;6970000;151;;;;;;;;;;;;;;
3.463928;6972500;155;;;;;;;;;;;;;;
3.466428;6975000;137;;;;;;;;;;;;;;
3.468928;6977500;139;;;;;;;;;;;;;;
3.471428;6980000;171;;;;;;;;;;;;;;
3.473928;6982500;336;;;;;;;;;;;;;;
3.476428;6985000;267;;;;;;;;;;;;;;
3.478928;6987500;201;;;;;;;;;;;;;;
3.481428;6990000;169;;;;;;;;;;;;;;
3.483928;6992500;141;;;;;;;;;;;;;;
3.486428;6995000;137;;;;;;;;6995886;-984.618;14.101;74.319;1329.203;-147.344;-318.003
3.488928;6997500;157;6996320;140.211;-485.413;893.001;443.258;-121.042;41.123;;;;;;;
3.491428;7000000;142;;;;;;;;;;;;;;
3.493928;7002500;158;;;;;;;;;;;;;;
3.496428;7005000;184;;;;;;;;;;;;;;
3.498928;7007500;160;;;;;;;;;;;;;;
3.501428;7010000;152;;;;;;;;;;;;;;
3.503928;7012500;333;;;;;;;;;;;;;;
3.506428;7015000;219;;;;;;;;;;;;;;
3.508928;7017500;167;;;;;;;;;;;;;;
3.511428;7020000;155;;;;;;;;;;;;;;
3.513928;7022500;159;;;;;;;;;;;;;;
3.516428;7025000;158;7025062;139.96;-485.445;892.96;445.595;-120.678;38.629;7024627;-984.583;14.06;74.36;1329.681;-148.727;-319.603
3.518928;7027500;172;;;;;;;;;;;;;;
3.521428;7030000;143;;;;;;;;;;;;;;
3.523928;7032500;155;;;;;;;;;;;;;;
3.526428;7035000;135;;;;;;;;;;;;;;
3.528928;7037500;137;;;;;;;;;;;;;;
3.531428;7040000;169;;;;;;;;;;;;;;
3.533928;7042500;363;;;;;;;;;;;;;;
3.536428;7045000;264;;;;;;;;7045972;-984.557;14.089;74.376;1328.384;-146.978;-318.936
3.538928;7047500;205;7046414;139.958;-485.396;892.988;451.315;-120.769;35.385;;;;;;;
3.541428;7050000;170;;;;;;;;;;;;;;
3.543928;7052500;152;;;;;;;;;;;;;;
3.546428;7055000;138;;;;;;;;;;;;;;
3.548928;7057500;156;;;;;;;;;;;;;;
3.551428;7060000;144;;;;;;;;;;;;;;
3.553928;7062500;156;;;;;;;;;;;;;;
3.556428;7065000;158;;;;;;;;;;;;;;
3.558928;7067500;158;;;;;;;;;;;;;;
3.561428;7070000;144;;;;;;;;;;;;;;
3.563928;7072500;361;;;;;;;;;;;;;;
3.566428;7075000;231;;;;;;;;7076173;-984.507;14.172;74.268;1329.34;-148.817;-322.239
3.568928;7077500;190;7076609;140.061;-485.392;892.905;450.187;-120.418;36.678;;;;;;;
3.571428;7080000;157;;;;;;;;;;;;;;
3.573928;7082500;186;;;;;;;;;;;;;;
3.576428;7085000;167;;;;;;;;;;;;;;
3.578928;7087500;158;;;;;;;;;;;;;;
3.581428;7090000;170;;;;;;;;;;;;;;
3.583928;7092500;155;;;;;;;;;;;;;;
3.586428;7095000;134;;;;;;;;;;;;;;
3.588928;7097500;137;;;;;;;;;;;;;;
3.591428;7100000;168;;;;;;;;;;;;;;
3.593928;7102500;406;;;;;;;;;;;;;;
3.596428;7105000;288;7105348;140.03;-485.345;892.876;445.615;-124.022;37.907;7104914;-984.521;14.183;74.331;1330.248;-150.126;-324.502
3.598928;7107500;206;;;;;;;;;;;;;;
3.601428;7110000;188;;;;;;;;;;;;;;
3.603928;7112500;168;;;;;;;;;;;;;;
3.606428;7115000;137;;;;;;;;;;;;;;
3.608928;7117500;136;;;;;;;;;;;;;;
3.611428;7120000;141;;;;;;;;;;;;;;
3.613928;7122500;155;;;;;;;;;;;;;;
3.616428;7125000;184;;;;;;;;;;;;;;
3.618928;7127500;159;7126686;139.952;-485.325;892.829;441.272;-123.071;37.324;7126261;-984.504;14.249;74.414;1328.923;-151.807;-327.964
3.621428;7130000;152;;;;;;;;;;;;;;
3.623928;7132500;317;;;;;;;;;;;;;;
3.626428;7135000;201;;;;;;;;;;;;;;
3.628928;7137500;183;;;;;;;;;;;;;;
3.631428;7140000;154;;;;;;;;;;;;;;
3.633928;7142500;183;;;;;;;;;;;;;;
3.636428;7145000;186;;;;;;;;;;;;;;
3.638928;7147500;174;;;;;;;;;;;;;;
3.641428;7150000;168;;;;;;;;;;;;;;
3.643928;7152500;317;;;;;;;;;;;;;;
3.646428;7155000;237;;;;;;;;;;;;;;
3.648928;7157500;174;7156721;139.994;-485.453;892.797;437.583;-123.042;38.52;7156287;-984.432;14.195;74.512;1327.664;-152.529;-327.754
3.651428;7160000;175;;;;;;;;;;;;;;
3.653928;7162500;187;;;;;;;;;;;;;;
3.656428;7165000;168;;;;;;;;;;;;;;
3.658928;7167500;159;;;;;;;;;;;;;;
3.661428;7170000;172;;;;;;;;;;;;;;
3.663928;7172500;155;;;;;;;;;;;;;;
3.666428;7175000;153;;;;;;;;;;;;;;
3.668928;7177500;136;;;;;;;;;;;;;;
3.671428;7180000;139;;;;;;;;;;;;;;
3.673928;7182500;284;;;;;;;;;;;;;;
3.676428;7185000;280;7185463;140.015;-485.55;892.852;442.391;-123.015;37.469;7185027;-984.517;14.229;74.575;1330.844;-153.653;-327.553
3.678928;7187500;206;;;;;;;;;;;;;;
3.681428;7190000;168;;;;;;;;;;;;;;
3.683928;7192500;167;;;;;;;;;;;;;;
3.686428;7195000;135;;;;;;;;;;;;;;
3.688928;7197500;136;;;;;;;;;;;;;;
3.691428;7200000;141;;;;;;;;;;;;;;
3.693928;7202500;153;;;;;;;;;;;;;;
3.696428;7205000;174;;;;;;;;;;;;;;
3.698928;7207500;157;7206804;140.084;-485.496;892.788;437.772;-124.302;36.471;7206374;-984.451;14.25;74.622;1331.239;-154.283;-327.363
3.701428;7210000;150;;;;;;;;;;;;;;
3.703928;7212500;313;;;;;;;;;;;;;;
3.706428;7215000;201;;;;;;;;;;;;;;
3.708928;7217500;156;;;;;;;;;;;;;;
3.711428;7220000;152;;;;;;;;;;;;;;
3.713928;7222500;156;;;;;;;;;;;;;;
3.716428;7225000;157;;;;;;;;;;;;;;
3.718928;7227500;156;;;;;;;;;;;;;;
3.721428;7230000;168;;;;;;;;;;;;;;
3.723928;7232500;0;;;;;;;;;;;;;;
3.726428;7235000;254;;;;;;;;;;;;;;
3.728928;7237500;182;7236836;140.095;-485.316;892.752;443.446;-123.774;35.085;7236400;-984.596;14.306;74.642;1331.177;-154.444;-324.995
3.731428;7240000;158;;;;;;;;;;;;;;
3.733928;7242500;185;;;;;;;;;;;;;;
3.736428;7245000;185;;;;;;;;;;;;;;
3.738928;7247500;159;;;;;;;;;;;;;;
3.741428;7250000;152;;;;;;;;;;;;;;
3.743928;7252500;138;;;;;;;;;;;;;;
3.746428;7255000;153;;;;;;;;;;;;;;
3.748928;7257500;136;;;;;;;;;;;;;;
3.751428;7260000;167;;;;;;;;;;;;;;
3.753928;7262500;350;;;;;;;;;;;;;;
3.756428;7265000;284;7265401;140.148;-485.365;892.766;441.836;-124.586;36.393;7264967;-984.477;14.195;74.643;1328.931;-156.784;-326.245
3.758928;7267500;235;;;;;;;;;;;;;;
3.761428;7270000;189;;;;;;;;;;;;;;
3.763928;7272500;141;;;;;;;;;;;;;;
3.766428;7275000;136;;;;;;;;;;;;;;
3.768928;7277500;153;;;;;;;;;;;;;;
3.771428;7280000;151;;;;;;;;;;;;;;
3.773928;7282500;182;;;;;;;;;;;;;;
3.776428;7285000;159;;;;;;;;;;;;;;
3.778928;7287500;183;7286739;140.137;-485.332;892.615;446.869;-125.356;35.886;7286314;-984.492;14.211;74.644;1328.109;-158.57;-323.495
3.781428;7290000;171;;;;;;;;;;;;;;
3.783928;7292500;320;;;;;;;;;;;;;;
3.786428;7295000;230;;;;;;;;;;;;;;
3.788928;7297500;185;;;;;;;;;;;;;;
3.791428;7300000;174;;;;;;;;;;;;;;
3.793928;7302500;185;;;;;;;;;;;;;;
3.796428;7305000;160;;;;;;;;;;;;;;
3.798928;7307500;158;;;;;;;;;;;;;;
3.801428;7310000;171;7311057;140.06;-485.355;892.6;450.776;-126.963;34.529;7310623;-984.55;14.299;74.621;1329.516;-157.641;-323.071
3.803928;7312500;1;;;;;;;;;;;;;;
3.806428;7315000;280;;;;;;;;;;;;;;
3.808928;7317500;203;;;;;;;;;;;;;;
3.811428;7320000;186;;;;;;;;;;;;;;
3.813928;7322500;168;;;;;;;;;;;;;;
3.816428;7325000;186;;;;;;;;;;;;;;
3.818928;7327500;185;;;;;;;;;;;;;;
3.821428;7330000;153;;;;;;;;;;;;;;
3.823928;7332500;157;;;;;;;;;;;;;;
3.826428;7335000;153;;;;;;;;;;;;;;
3.828928;7337500;135;7336825;139.938;-485.372;892.555;452.299;-126.74;36.74;7336397;-984.458;14.268;74.507;1327.353;-157.197;-327.48
3.831428;7340000;167;;;;;;;;;;;;;;
3.833928;7342500;1;;;;;;;;;;;;;;
3.836428;7345000;310;;;;;;;;;;;;;;
3.838928;7347500;236;;;;;;;;;;;;;;
3.841428;7350000;172;;;;;;;;;;;;;;
3.843928;7352500;169;;;;;;;;;;;;;;
3.846428;7355000;135;;;;;;;;;;;;;;
3.848928;7357500;154;;;;;;;;;;;;;;
3.851428;7360000;144;;;;;;;;;;;;;;
3.853928;7362500;156;;;;;;;;;;;;;;
3.856428;7365000;167;;;;;;;;;;;;;;
3.858928;7367500;158;7367033;140.048;-485.497;892.384;451.997;-125.653;36.653;7366598;-984.413;14.359;74.533;1333.172;-158.962;-330.356
3.861428;7370000;172;;;;;;;;;;;;;;
3.863928;7372500;318;;;;;;;;;;;;;;
3.866428;7375000;206;;;;;;;;;;;;;;
3.868928;7377500;157;;;;;;;;;;;;;;
3.871428;7380000;154;;;;;;;;;;;;;;
3.873928;7382500;183;;;;;;;;;;;;;;
3.876428;7385000;167;;;;;;;;;;;;;;
3.878928;7387500;158;;;;;;;;;;;;;;
3.881428;7390000;154;;;;;;;;;;;;;;
3.883928;7392500;346;;;;;;;;;;;;;;
3.886428;7395000;278;;;;;;;;;;;;;;
3.888928;7397500;184;7397236;139.999;-485.579;892.422;447.335;-124.183;39.196;7396801;-984.493;14.441;74.503;1333.451;-159.326;-331.775
3.891428;7400000;176;;;;;;;;;;;;;;
3.893928;7402500;167;;;;;;;;;;;;;;
3.896428;7405000;169;;;;;;;;;;;;;;
3.898928;7407500;185;;;;;;;;;;;;;;
3.901428;7410000;153;;;;;;;;;;;;;;
3.903928;7412500;167;;;;;;;;;;;;;;
3.906428;7415000;135;;;;;;;;;;;;;;
3.908928;7417500;363;;;;;;;;;;;;;;
3.911428;7420000;249;;;;;;;;;;;;;;
3.913928;7422500;202;;;;;;;;;;;;;;
3.916428;7425000;204;7425976;139.953;-485.645;892.435;446.405;-122.349;38.111;7425542;-984.452;14.457;74.542;1331.529;-158.797;-328.312
3.918928;7427500;172;;;;;;;;;;;;;;
3.921428;7430000;154;;;;;;;;;;;;;;
3.923928;7432500;157;;;;;;;;;;;;;;
3.926428;7435000;135;;;;;;;;;;;;;;
3.928928;7437500;127;;;;;;;;;;;;;;
3.931428;7440000;140;;;;;;;;;;;;;;
3.933928;7442500;265;;;;;;;;;;;;;;
3.936428;7445000;286;;;;;;;;;;;;;;
3.938928;7447500;218;7447314;139.946;-485.537;892.441;450.335;-122.794;37.08;7446888;-984.402;14.515;74.487;1338.015;-160.482;-325.896
3.941428;7450000;188;;;;;;;;;;;;;;
3.943928;7452500;166;;;;;;;;;;;;;;
3.946428;7455000;154;;;;;;;;;;;;;;
3.948928;7457500;137;;;;;;;;;;;;;;
3.951428;7460000;160;;;;;;;;;;;;;;
3.953928;7462500;154;;;;;;;;;;;;;;
3.956428;7465000;165;;;;;;;;;;;;;;
3.958928;7467500;183;;;;;;;;;;;;;;
3.961428;7470000;152;;;;;;;;;;;;;;
3.963928;7472500;263;;;;;;;;;;;;;;
3.966428;7475000;284;;;;;;;;;;;;;;
3.968928;7477500;188;7477522;139.891;-485.453;892.489;450.568;-124.092;39.164;7477088;-984.311;14.539;74.514;1337.614;-159.896;-327.539
3.971428;7480000;184;;;;;;;;;;;;;;
3.973928;7482500;159;;;;;;;;;;;;;;
3.976428;7485000;168;;;;;;;;;;;;;;
3.978928;7487500;159;;;;;;;;;;;;;;
3.981428;7490000;172;;;;;;;;;;;;;;
3.983928;7492500;155;;;;;;;;;;;;;;
3.986428;7495000;127;;;;;;;;;;;;;;
3.988928;7497500;135;;;;;;;;;;;;;;
3.991428;7500000;141;;;;;;;;;;;;;;
3.993928;7502500;153;;;;;;;;;;;;;;
3.996428;7505000;328;;;;;;;;7505829;-984.414;14.532;74.522;1337.671;-159.339;-326.037
3.998928;7507500;221;7506264;139.85;-485.574;892.547;447.727;-124.45;36.331;;;;;;;
4.001428;7510000;200;;;;;;;;;;;;;;
4.003928;7512500;158;;;;;;;;;;;;;;
4.006428;7515000;127;;;;;;;;;;;;;;
4.008928;7517500;154;;;;;;;;;;;;;;
4.011428;7520000;141;;;;;;;;;;;;;;
4.013928;7522500;155;;;;;;;;;;;;;;
4.016428;7525000;185;;;;;;;;;;;;;;
4.018928;7527500;167;7527605;139.946;-485.568;892.456;448.966;-124.352;37.577;7527176;-984.463;14.464;74.596;1338.162;-156.184;-322.86
4.021428;7530000;152;;;;;;;;;;;;;;
4.023928;7532500;349;;;;;;;;;;;;;;
4.026428;7535000;219;;;;;;;;;;;;;;
4.028928;7537500;187;;;;;;;;;;;;;;
4.031428;7540000;154;;;;;;;;;;;;;;
4.033928;7542500;157;;;;;;;;;;;;;;
4.036428;7545000;160;;;;;;;;;;;;;;
4.038928;7547500;185;;;;;;;;;;;;;;
4.041428;7550000;171;;;;;;;;;;;;;;
4.043928;7552500;140;;;;;;;;;;;;;;
4.046428;7555000;282;;;;;;;;;;;;;;
4.048928;7557500;190;7557810;139.909;-485.738;892.436;445.768;-126.01;38.76;7557375;-984.485;14.412;74.544;1336.879;-157.562;-321.154
4.051428;7560000;184;;;;;;;;;;;;;;
4.053928;7562500;166;;;;;;;;;;;;;;
4.056428;7565000;159;;;;;;;;;;;;;;
4.058928;7567500;157;;;;;;;;;;;;;;
4.061428;7570000;144;;;;;;;;;;;;;;
4.063928;7572500;166;;;;;;;;;;;;;;
4.066428;7575000;135;;;;;;;;;;;;;;
4.068928;7577500;128;;;;;;;;;;;;;;
4.071428;7580000;141;;;;;;;;;;;;;;
4.073928;7582500;153;;;;;;;;;;;;;;
4.076428;7585000;314;;;;;;;;7586116;-984.573;14.332;74.697;1336.535;-157.559;-319.097
4.078928;7587500;232;7586550;139.861;-485.692;892.381;448.854;-127.584;37.697;;;;;;;
4.081428;7590000;176;;;;;;;;;;;;;;
4.083928;7592500;152;;;;;;;;;;;;;;
4.086428;7595000;136;;;;;;;;;;;;;;
4.088928;7597500;151;;;;;;;;;;;;;;
4.091428;7600000;140;;;;;;;;;;;;;;
4.093928;7602500;154;;;;;;;;;;;;;;
4.096428;7605000;167;;;;;;;;;;;;;;
4.098928;7607500;168;7607889;139.852;-485.716;892.353;445.662;-126.892;38.0;7607461;-984.468;14.238;74.774;1330.958;-156.244;-319.329
4.101428;7610000;172;;;;;;;;;;;;;;
4.103928;7612500;391;;;;;;;;;;;;;;
4.106428;7615000;233;;;;;;;;;;;;;;
4.108928;7617500;170;;;;;;;;;;;;;;
4.111428;7620000;175;;;;;;;;;;;;;;
4.113928;7622500;155;;;;;;;;;;;;;;
4.116428;7625000;184;;;;;;;;;;;;;;
4.118928;7627500;156;;;;;;;;;;;;;;
4.121428;7630000;152;;;;;;;;;;;;;;
4.123928;7632500;157;;;;;;;;;;;;;;
4.126428;7635000;297;;;;;;;;;;;;;;
4.128928;7637500;218;7638097;139.741;-485.587;892.332;448.753;-125.36;34.787;7637663;-984.484;14.184;74.793;1329.598;-156.307;-317.8
4.131428;7640000;185;;;;;;;;;;;;;;
4.133928;7642500;155;;;;;;;;;;;;;;
4.136428;7645000;183;;;;;;;;;;;;;;
4.138928;7647500;158;;;;;;;;;;;;;;
4.141428;7650000;151;;;;;;;;;;;;;;
4.143928;7652500;155;;;;;;;;;;;;;;
4.146428;7655000;124;;;;;;;;;;;;;;
4.148928;7657500;149;;;;;;;;;;;;;;
4.151428;7660000;139;;;;;;;;;;;;;;
4.153928;7662500;152;;;;;;;;;;;;;;
4.156428;7665000;329;;;;;;;;;;;;;;
4.158928;7667500;264;7666838;139.781;-485.622;892.325;445.566;-124.78;36.985;7666403;-984.407;14.171;74.775;1332.681;-159.429;-316.348
4.161428;7670000;204;;;;;;;;;;;;;;
4.163928;7672500;155;;;;;;;;;;;;;;
4.166428;7675000;155;;;;;;;;;;;;;;
4.168928;7677500;137;;;;;;;;;;;;;;
4.171428;7680000;167;;;;;;;;;;;;;;
4.173928;7682500;174;;;;;;;;;;;;;;
4.176428;7685000;160;;;;;;;;;;;;;;
4.178928;7687500;187;7688006;139.721;-485.637;892.349;444.725;-124.228;32.074;7687575;-984.365;14.115;74.842;1329.047;-154.957;-316.718
4.181428;7690000;171;;;;;;;;;;;;;;
4.183928;7692500;360;;;;;;;;;;;;;;
4.186428;7695000;264;;;;;;;;;;;;;;
4.188928;7697500;172;;;;;;;;;;;;;;
4.191428;7700000;156;;;;;;;;;;;;;;
4.193928;7702500;175;;;;;;;;;;;;;;
4.196428;7705000;166;;;;;;;;;;;;;;
4.198928;7707500;155;;;;;;;;;;;;;;
4.201428;7710000;151;;;;;;;;;;;;;;
4.203928;7712500;155;7712320;139.732;-485.639;892.176;439.114;-125.892;33.095;7711884;-984.386;14.251;74.925;1328.219;-156.397;-316.195
4.206428;7715000;331;;;;;;;;;;;;;;
4.208928;7717500;205;;;;;;;;;;;;;;
4.211428;7720000;169;;;;;;;;;;;;;;
4.213928;7722500;167;;;;;;;;;;;;;;
4.216428;7725000;185;;;;;;;;;;;;;;
4.218928;7727500;158;;;;;;;;;;;;;;
4.221428;7730000;153;;;;;;;;;;;;;;
4.223928;7732500;137;;;;;;;;;;;;;;
4.226428;7735000;125;;;;;;;;;;;;;;
4.228928;7737500;143;7738091;139.834;-485.739;892.201;439.908;-134.472;26.19;7737659;-984.247;14.301;74.967;1329.621;-159.077;-314.822
4.231428;7740000;136;;;;;;;;;;;;;;
4.233928;7742500;152;;;;;;;;;;;;;;
4.236428;7745000;344;;;;;;;;;;;;;;
4.238928;7747500;246;;;;;;;;;;;;;;
4.241428;7750000;188;;;;;;;;;;;;;;
4.243928;7752500;152;;;;;;;;;;;;;;
4.246428;7755000;154;;;;;;;;;;;;;;
4.248928;7757500;136;;;;;;;;;;;;;;
4.251428;7760000;137;;;;;;;;;;;;;;
4.253928;7762500;172;;;;;;;;;;;;;;
4.256428;7765000;157;;;;;;;;;;;;;;
4.258928;7767500;182;7768290;139.772;-486.011;892.163;437.163;-131.686;29.693;7767860;-984.317;14.202;74.823;1324.827;-154.186;-315.706
4.261428;7770000;153;;;;;;;;;;;;;;
4.263928;7772500;0;;;;;;;;;;;;;;
4.266428;7775000;280;;;;;;;;;;;;;;
4.268928;7777500;200;;;;;;;;;;;;;;
4.271428;7780000;155;;;;;;;;;;;;;;
4.273928;7782500;156;;;;;;;;;;;;;;
4.276428;7785000;160;;;;;;;;;;;;;;
4.278928;7787500;158;;;;;;;;;;;;;;
4.281428;7790000;169;;;;;;;;;;;;;;
4.283928;7792500;155;;;;;;;;;;;;;;
4.286428;7795000;316;;;;;;;;;;;;;;
4.288928;7797500;233;7798502;139.822;-486.049;892.451;441.555;-129.039;33.459;7798063;-984.255;14.401;74.883;1329.023;-156.539;-314.796
4.291428;7800000;169;;;;;;;;;;;;;;
4.293928;7802500;183;;;;;;;;;;;;;;
4.296428;7805000;185;;;;;;;;;;;;;;
4.298928;7807500;167;;;;;;;;;;;;;;
4.301428;7810000;171;;;;;;;;;;;;;;
4.303928;7812500;139;;;;;;;;;;;;;;
4.306428;7815000;134;;;;;;;;;;;;;;
4.308928;7817500;135;;;;;;;;;;;;;;
4.311428;7820000;313;;;;;;;;;;;;;;
4.313928;7822500;237;;;;;;;;;;;;;;
4.316428;7825000;187;;;;;;;;;;;;;;
4.318928;7827500;172;7827234;139.816;-486.012;892.56;442.664;-126.525;37.473;7826804;-984.129;14.516;74.841;1328.635;-158.775;-315.244
4.321428;7830000;157;;;;;;;;;;;;;;
4.323928;7832500;158;;;;;;;;;;;;;;
4.326428;7835000;151;;;;;;;;;;;;;;
4.328928;7837500;125;;;;;;;;;;;;;;
4.331428;7840000;137;;;;;;;;;;;;;;
4.333928;7842500;152;;;;;;;;;;;;;;
4.336428;7845000;344;;;;;;;;;;;;;;
4.338928;7847500;266;7848580;139.822;-485.978;892.596;444.594;-124.136;37.349;7848149;-984.308;14.516;74.808;1323.89;-150.836;-314.794
4.341428;7850000;188;;;;;;;;;;;;;;
4.343928;7852500;175;;;;;;;;;;;;;;
4.346428;7855000;157;;;;;;;;;;;;;;
4.348928;7857500;153;;;;;;;;;;;;;;
4.351428;7860000;158;;;;;;;;;;;;;;
4.353928;7862500;152;;;;;;;;;;;;;;
4.356428;7865000;183;;;;;;;;;;;;;;
4.358928;7867500;158;;;;;;;;;;;;;;
4.361428;7870000;172;;;;;;;;;;;;;;
4.363928;7872500;155;;;;;;;;;;;;;;
4.366428;7875000;334;;;;;;;;;;;;;;
4.368928;7877500;217;;;;;;;;7878350;-984.387;14.382;74.801;1319.821;-148.544;-317.429
4.371428;7880000;172;7878785;139.748;-485.963;892.746;449.926;-124.054;39.42;;;;;;;
4.373928;7882500;160;;;;;;;;;;;;;;
4.376428;7885000;168;;;;;;;;;;;;;;
4.378928;7887500;160;;;;;;;;;;;;;;
4.381428;7890000;172;;;;;;;;;;;;;;
4.383928;7892500;158;;;;;;;;;;;;;;
4.386428;7895000;126;;;;;;;;;;;;;;
4.388928;7897500;126;;;;;;;;;;;;;;
4.391428;7900000;138;;;;;;;;;;;;;;
4.393928;7902500;170;;;;;;;;;;;;;;
4.396428;7905000;363;;;;;;;;;;;;;;
4.398928;7907500;278;7907525;139.696;-486.04;892.602;451.93;-127.039;38.324;7907091;-984.327;14.432;74.843;1325.58;-156.867;-315.558
4.401428;7910000;190;;;;;;;;;;;;;;
4.403928;7912500;155;;;;;;;;;;;;;;
4.406428;7915000;136;;;;;;;;;;;;;;
4.408928;7917500;127;;;;;;;;;;;;;;
4.411428;7920000;156;;;;;;;;;;;;;;
4.413928;7922500;153;;;;;;;;;;;;;;
4.416428;7925000;157;;;;;;;;;;;;;;
4.418928;7927500;158;;;;;;;;7928436;-984.344;14.399;74.913;1328.863;-159.086;-312.905
4.421428;7930000;155;7928863;139.653;-486.211;892.704;452.521;-127.25;41.22;;;;;;;
4.423928;7932500;139;;;;;;;;;;;;;;
4.426428;7935000;280;;;;;;;;;;;;;;
4.428928;7937500;186;;;;;;;;;;;;;;
4.431428;7940000;174;;;;;;;;;;;;;;
4.433928;7942500;174;;;;;;;;;;;;;;
4.436428;7945000;160;;;;;;;;;;;;;;
4.438928;7947500;160;;;;;;;;;;;;;;
4.441428;7950000;156;;;;;;;;;;;;;;
4.443928;7952500;167;;;;;;;;;;;;;;
4.446428;7955000;379;;;;;;;;;;;;;;
4.448928;7957500;233;;;;;;;;7958637;-984.354;14.497;74.809;1322.357;-151.132;-315.635
4.451428;7960000;174;7959071;139.551;-486.228;892.727;447.832;-126.575;43.534;;;;;;;
4.453928;7962500;185;;;;;;;;;;;;;;
4.456428;7965000;167;;;;;;;;;;;;;;
4.458928;7967500;168;;;;;;;;;;;;;;
4.461428;7970000;171;;;;;;;;;;;;;;
4.463928;7972500;139;;;;;;;;;;;;;;
4.466428;7975000;152;;;;;;;;;;;;;;
4.468928;7977500;125;;;;;;;;;;;;;;
4.471428;7980000;135;;;;;;;;;;;;;;
4.473928;7982500;158;;;;;;;;;;;;;;
4.476428;7985000;408;;;;;;;;;;;;;;
4.478928;7987500;284;7987726;139.51;-486.103;892.76;449.503;-128.121;42.67;7987291;-984.363;14.498;74.826;1325.802;-154.95;-313.853
4.481428;7990000;203;;;;;;;;;;;;;;
4.483928;7992500;169;;;;;;;;;;;;;;
4.486428;7995000;139;;;;;;;;;;;;;;
4.488928;7997500;136;;;;;;;;;;;;;;
4.491428;8000000;156;;;;;;;;;;;;;;
4.493928;8002500;152;;;;;;;;;;;;;;
4.496428;8005000;181;;;;;;;;;;;;;;
4.498928;8007500;166;;;;;;;;8008636;-984.475;14.389;74.745;1333.449;-154.203;-312.598
4.501428;8010000;155;8009068;139.531;-485.966;892.732;448.903;-128.277;43.161;;;;;;;
4.503928;8012500;157;;;;;;;;;;;;;;
4.506428;8015000;287;;;;;;;;;;;;;;
4.508928;8017500;217;;;;;;;;;;;;;;
4.511428;8020000;158;;;;;;;;;;;;;;
4.513928;8022500;174;;;;;;;;;;;;;;
4.516428;8025000;185;;;;;;;;;;;;;;
4.518928;8027500;159;;;;;;;;;;;;;;
4.521428;8030000;173;;;;;;;;;;;;;;
4.523928;8032500;158;;;;;;;;;;;;;;
4.526428;8035000;333;;;;;;;;;;;;;;
4.528928;8037500;255;;;;;;;;;;;;;;
4.531428;8040000;173;8039273;139.502;-485.915;892.765;453.146;-125.801;40.128;8038838;-984.576;14.353;74.802;1331.527;-149.555;-317.53
4.533928;8042500;169;;;;;;;;;;;;;;
4.536428;8045000;167;;;;;;;;;;;;;;
4.538928;8047500;185;;;;;;;;;;;;;;
4.541428;8050000;154;;;;;;;;;;;;;;
4.543928;8052500;139;;;;;;;;;;;;;;
4.546428;8055000;152;;;;;;;;;;;;;;
4.548928;8057500;128;;;;;;;;;;;;;;
4.551428;8060000;136;;;;;;;;;;;;;;
4.553928;8062500;152;;;;;;;;;;;;;;
4.556428;8065000;22;;;;;;;;;;;;;;
4.558928;8067500;298;8067925;139.438;-485.946;892.584;454.988;-126.948;37.684;8067491;-984.55;14.392;74.813;1333.2;-150.827;-321.341
4.561428;8070000;220;;;;;;;;;;;;;;
4.563928;8072500;182;;;;;;;;;;;;;;
4.566428;8075000;137;;;;;;;;;;;;;;
4.568928;8077500;126;;;;;;;;;;;;;;
4.571428;8080000;154;;;;;;;;;;;;;;
4.573928;8082500;169;;;;;;;;;;;;;;
4.576428;8085000;157;;;;;;;;;;;;;;
4.578928;8087500;165;;;;;;;;;;;;;;
4.581428;8090000;156;8089264;139.506;-485.927;892.625;458.926;-127.601;38.425;8088836;-984.482;14.386;74.842;1329.103;-147.661;-319.712
4.583928;8092500;143;;;;;;;;;;;;;;
4.586428;8095000;302;;;;;;;;;;;;;;
4.588928;8097500;201;;;;;;;;;;;;;;
4.591428;8100000;158;;;;;;;;;;;;;;
4.593928;8102500;156;;;;;;;;;;;;;;
4.596428;8105000;184;;;;;;;;;;;;;;
4.598928;8107500;160;;;;;;;;;;;;;;
4.601428;8110000;155;;;;;;;;;;;;;;
4.603928;8112500;140;8113407;139.423;-485.902;892.475;460.48;-126.471;40.879;8112973;-984.565;14.228;74.705;1323.46;-147.278;-319.914
4.606428;8115000;139;;;;;;;;;;;;;;
4.608928;8117500;266;;;;;;;;;;;;;;
4.611428;8120000;203;;;;;;;;;;;;;;
4.613928;8122500;185;;;;;;;;;;;;;;
4.616428;8125000;169;;;;;;;;;;;;;;
4.618928;8127500;168;;;;;;;;;;;;;;
4.621428;8130000;174;;;;;;;;;;;;;;
4.623928;8132500;158;;;;;;;;;;;;;;
4.626428;8135000;152;;;;;;;;;;;;;;
4.628928;8137500;127;;;;;;;;8138747;-984.502;14.236;74.685;1322.912;-153.039;-314.418
4.631428;8140000;156;8139175;139.492;-485.763;892.448;461.081;-126.272;37.522;;;;;;;
4.633928;8142500;169;;;;;;;;;;;;;;
4.636428;8145000;70;;;;;;;;;;;;;;
4.638928;8147500;303;;;;;;;;;;;;;;
4.641428;8150000;232;;;;;;;;;;;;;;
4.643928;8152500;186;;;;;;;;;;;;;;
4.646428;8155000;140;;;;;;;;;;;;;;
4.648928;8157500;153;;;;;;;;;;;;;;
4.651428;8160000;157;;;;;;;;;;;;;;
4.653928;8162500;171;;;;;;;;;;;;;;
4.656428;8165000;174;;;;;;;;;;;;;;
4.658928;8167500;159;;;;;;;;;;;;;;
4.661428;8170000;156;8169383;139.489;-485.723;892.441;456.839;-125.209;41.771;8168949;-984.486;14.238;74.666;1324.142;-152.387;-315.322
4.663928;8172500;168;;;;;;;;;;;;;;
4.666428;8175000;315;;;;;;;;;;;;;;
4.668928;8177500;223;;;;;;;;;;;;;;
4.671428;8180000;184;;;;;;;;;;;;;;
4.673928;8182500;183;;;;;;;;;;;;;;
4.676428;8185000;185;;;;;;;;;;;;;;
4.678928;8187500;186;;;;;;;;;;;;;;
4.681428;8190000;174;;;;;;;;;;;;;;
4.683928;8192500;143;;;;;;;;;;;;;;
4.686428;8195000;0;;;;;;;;;;;;;;
4.688928;8197500;255;;;;;;;;;;;;;;
4.691428;8200000;204;8199587;139.621;-485.739;892.416;456.747;-124.636;41.433;8199152;-984.415;14.301;74.641;1322.247;-149.143;-317.931
4.693928;8202500;188;;;;;;;;;;;;;;
4.696428;8205000;170;;;;;;;;;;;;;;
4.698928;8207500;187;;;;;;;;;;;;;;
4.701428;8210000;174;;;;;;;;;;;;;;
4.703928;8212500;167;;;;;;;;;;;;;;
4.706428;8215000;154;;;;;;;;;;;;;;
4.708928;8217500;126;;;;;;;;;;;;;;
4.711428;8220000;351;;;;;;;;;;;;;;
4.713928;8222500;266;;;;;;;;;;;;;;
4.716428;8225000;203;;;;;;;;;;;;;;
4.718928;8227500;175;8228326;139.686;-485.748;892.399;456.223;-124.967;41.111;8227892;-984.336;14.391;74.642;1325.697;-150.873;-320.847
4.721428;8230000;158;;;;;;;;;;;;;;
4.723928;8232500;168;;;;;;;;;;;;;;
4.726428;8235000;154;;;;;;;;;;;;;;
4.728928;8237500;126;;;;;;;;;;;;;;
4.731428;8240000;135;;;;;;;;;;;;;;
4.733928;8242500;151;;;;;;;;;;;;;;
4.736428;8245000;271;;;;;;;;;;;;;;
4.738928;8247500;281;;;;;;;;;;;;;;
4.741428;8250000;205;8249665;139.656;-485.788;892.412;454.849;-128.343;38.18;8249237;-984.194;14.324;74.558;1323.725;-150.329;-318.367
4.743928;8252500;167;;;;;;;;;;;;;;
4.746428;8255000;140;;;;;;;;;;;;;;
4.748928;8257500;151;;;;;;;;;;;;;;
4.751428;8260000;137;;;;;;;;;;;;;;
4.753928;8262500;143;;;;;;;;;;;;;;
4.756428;8265000;159;;;;;;;;;;;;;;
4.758928;8267500;167;;;;;;;;;;;;;;
4.761428;8270000;184;;;;;;;;;;;;;;
4.763928;8272500;168;;;;;;;;;;;;;;
4.766428;8275000;124;;;;;;;;;;;;;;
4.768928;8277500;264;;;;;;;;;;;;;;
4.771428;8280000;188;8279873;139.688;-485.752;892.511;457.044;-128.926;39.334;8279438;-984.26;14.279;74.508;1324.038;-148.063;-319.074
4.773928;8282500;187;;;;;;;;;;;;;;
4.776428;8285000;169;;;;;;;;;;;;;;
4.778928;8287500;169;;;;;;;;;;;;;;
4.781428;8290000;157;;;;;;;;;;;;;;
4.783928;8292500;150;;;;;;;;;;;;;;
4.786428;8295000;155;;;;;;;;;;;;;;
4.788928;8297500;135;;;;;;;;;;;;;;
4.791428;8300000;156;;;;;;;;;;;;;;
4.793928;8302500;153;;;;;;;;;;;;;;
4.796428;8305000;106;;;;;;;;;;;;;;
4.798928;8307500;316;8308614;139.859;-485.669;892.421;457.817;-129.917;37.367;8308179;-984.256;14.126;74.553;1319.962;-148.535;-319.307
4.801428;8310000;217;;;;;;;;;;;;;;
4.803928;8312500;169;;;;;;;;;;;;;;
4.806428;8315000;141;;;;;;;;;;;;;;
4.808928;8317500;152;;;;;;;;;;;;;;
4.811428;8320000;137;;;;;;;;;;;;;;
4.813928;8322500;171;;;;;;;;;;;;;;
4.816428;8325000;175;;;;;;;;;;;;;;
4.818928;8327500;159;;;;;;;;;;;;;;
4.821428;8330000;174;8329956;139.85;-485.664;892.385;458.551;-129.546;35.936;8329524;-984.349;14.091;74.68;1316.526;-148.983;-318.655
4.823928;8332500;142;;;;;;;;;;;;;;
4.826428;8335000;363;;;;;;;;;;;;;;
4.828928;8337500;238;;;;;;;;;;;;;;
4.831428;8340000;187;;;;;;;;;;;;;;
4.833928;8342500;175;;;;;;;;;;;;;;
4.836428;8345000;187;;;;;;;;;;;;;;
4.838928;8347500;170;;;;;;;;;;;;;;
4.841428;8350000;183;;;;;;;;;;;;;;
4.843928;8352500;141;;;;;;;;;;;;;;
4.846428;8355000;154;;;;;;;;;;;;;;
4.848928;8357500;297;;;;;;;;;;;;;;
4.851428;8360000;215;8360161;139.885;-485.677;892.302;452.686;-128.319;38.952;8359726;-984.231;14.045;74.686;1310.2;-147.659;-318.472
4.853928;8362500;171;;;;;;;;;;;;;;
4.856428;8365000;168;;;;;;;;;;;;;;
4.858928;8367500;187;;;;;;;;;;;;;;
4.861428;8370000;155;;;;;;;;;;;;;;
4.863928;8372500;166;;;;;;;;;;;;;;
4.866428;8375000;155;;;;;;;;;;;;;;
4.868928;8377500;133;;;;;;;;;;;;;;
4.871428;8380000;155;;;;;;;;;;;;;;
4.873928;8382500;144;;;;;;;;;;;;;;
4.876428;8385000;183;;;;;;;;;;;;;;
4.878928;8387500;329;;;;;;;;8388466;-984.228;14.221;74.715;1309.002;-145.963;-316.111
4.881428;8390000;221;8388900;139.686;-485.61;892.308;450.614;-127.591;37.004;;;;;;;
4.883928;8392500;190;;;;;;;;;;;;;;
4.886428;8395000;151;;;;;;;;;;;;;;
4.888928;8397500;156;;;;;;;;;;;;;;
4.891428;8400000;139;;;;;;;;;;;;;;
4.893928;8402500;169;;;;;;;;;;;;;;
4.896428;8405000;157;;;;;;;;;;;;;;
4.898928;8407500;168;;;;;;;;;;;;;;
4.901428;8410000;184;8410239;139.631;-485.711;892.241;446.458;-129.086;36.029;8409811;-984.262;14.267;74.658;1311.365;-146.103;-316.493
4.903928;8412500;151;;;;;;;;;;;;;;
4.906428;8415000;364;;;;;;;;;;;;;;
4.908928;8417500;232;;;;;;;;;;;;;;
4.911428;8420000;173;;;;;;;;;;;;;;
4.913928;8422500;184;;;;;;;;;;;;;;
4.916428;8425000;186;;;;;;;;;;;;;;
4.918928;8427500;168;;;;;;;;;;;;;;
4.921428;8430000;159;;;;;;;;;;;;;;
4.923928;8432500;152;;;;;;;;;;;;;;
4.926428;8435000;155;;;;;;;;;;;;;;
4.928928;8437500;311;;;;;;;;;;;;;;
4.931428;8440000;202;8440447;139.604;-485.63;892.214;446.01;-129.632;34.228;8440013;-984.404;14.316;74.652;1314.921;-144.048;-321.231
4.933928;8442500;170;;;;;;;;;;;;;;
4.936428;8445000;167;;;;;;;;;;;;;;
4.938928;8447500;184;;;;;;;;;;;;;;
4.941428;8450000;155;;;;;;;;;;;;;;
4.943928;8452500;167;;;;;;;;;;;;;;
4.946428;8455000;136;;;;;;;;;;;;;;
4.948928;8457500;125;;;;;;;;;;;;;;
4.951428;8460000;154;;;;;;;;;;;;;;
4.953928;8462500;143;;;;;;;;;;;;;;
4.956428;8465000;172;;;;;;;;;;;;;;
4.958928;8467500;328;;;;;;;;;;;;;;
4.961428;8470000;232;8469183;139.608;-485.639;892.237;450.397;-130.15;34.266;8468753;-984.49;14.369;74.707;1316.55;-145.595;-321.357
4.963928;8472500;199;;;;;;;;;;;;;;
4.966428;8475000;159;;;;;;;;;;;;;;
4.968928;8477500;155;;;;;;;;;;;;;;
4.971428;8480000;137;;;;;;;;;;;;;;
4.973928;8482500;169;;;;;;;;;;;;;;
4.976428;8485000;156;;;;;;;;;;;;;;
4.978928;8487500;168;;;;;;;;;;;;;;
4.981428;8490000;156;8490442;139.624;-485.55;892.289;456.315;-131.518;32.991;8490010;-984.498;14.224;74.736;1318.973;-147.94;-317.976
4.983928;8492500;150;;;;;;;;;;;;;;
4.986428;8495000;284;;;;;;;;;;;;;;
4.988928;8497500;237;;;;;;;;;;;;;;
4.991428;8500000;192;;;;;;;;;;;;;;
4.993928;8502500;183;;;;;;;;;;;;;;
4.996428;8505000;184;;;;;;;;;;;;;;
4.998928;8507500;185;;;;;;;;;;;;;;
5.001428;8510000;158;;;;;;;;;;;;;;
5.003928;8512500;168;;;;;;;;;;;;;;
5.006428;8515000;137;8514752;139.646;-485.611;892.162;450.562;-133.692;33.966;8514322;-984.543;14.244;74.702;1317.337;-148.856;-314.765
5.008928;8517500;328;;;;;;;;;;;;;;
5.011428;8520000;231;;;;;;;;;;;;;;
5.013928;8522500;189;;;;;;;;;;;;;;
5.016428;8525000;186;;;;;;;;;;;;;;
5.018928;8527500;168;;;;;;;;;;;;;;
5.021428;8530000;175;;;;;;;;;;;;;;
5.023928;8532500;168;;;;;;;;;;;;;;
5.026428;8535000;126;;;;;;;;;;;;;;
5.028928;8537500;152;;;;;;;;;;;;;;
5.031428;8540000;135;8540528;139.593;-485.578;892.176;450.784;-132.695;33.58;8540096;-984.567;14.289;74.657;1318.407;-149.288;-311.714
5.033928;8542500;150;;;;;;;;;;;;;;
5.036428;8545000;174;;;;;;;;;;;;;;
5.038928;8547500;334;;;;;;;;;;;;;;
5.041428;8550000;254;;;;;;;;;;;;;;
5.043928;8552500;199;;;;;;;;;;;;;;
5.046428;8555000;168;;;;;;;;;;;;;;
5.048928;8557500;154;;;;;;;;;;;;;;
5.051428;8560000;136;;;;;;;;;;;;;;
5.053928;8562500;144;;;;;;;;;;;;;;
5.056428;8565000;181;;;;;;;;;;;;;;
5.058928;8567500;160;;;;;;;;;;;;;;
5.061428;8570000;157;8570729;139.507;-485.528;892.048;451.87;-131.747;30.589;8570299;-984.511;14.227;74.596;1318.112;-151.011;-309.253
5.063928;8572500;153;;;;;;;;;;;;;;
5.066428;8575000;23;;;;;;;;;;;;;;
5.068928;8577500;253;;;;;;;;;;;;;;
5.071428;8580000;184;;;;;;;;;;;;;;
5.073928;8582500;159;;;;;;;;;;;;;;
5.076428;8585000;168;;;;;;;;;;;;;;
5.078928;8587500;184;;;;;;;;;;;;;;
5.081428;8590000;159;;;;;;;;;;;;;;
5.083928;8592500;152;;;;;;;;;;;;;;
5.086428;8595000;138;;;;;;;;;;;;;;
5.088928;8597500;316;;;;;;;;;;;;;;
5.091428;8600000;234;8600934;139.485;-485.542;891.945;451.151;-132.598;32.559;8600500;-984.653;14.315;74.697;1318.706;-151.773;-310.416
5.093928;8602500;202;;;;;;;;;;;;;;
5.096428;8605000;175;;;;;;;;;;;;;;
5.098928;8607500;171;;;;;;;;;;;;;;
5.101428;8610000;158;;;;;;;;;;;;;;
5.103928;8612500;152;;;;;;;;;;;;;;
5.106428;8615000;155;;;;;;;;;;;;;;
5.108928;8617500;136;;;;;;;;;;;;;;
5.111428;8620000;139;;;;;;;;;;;;;;
5.113928;8622500;298;;;;;;;;;;;;;;
5.116428;8625000;238;;;;;;;;;;;;;;
5.118928;8627500;189;;;;;;;;;;;;;;
5.121428;8630000;171;8629682;139.581;-485.506;891.878;449.156;-134.718;34.869;8629240;-984.623;14.343;74.799;1317.521;-151.622;-308.02
5.123928;8632500;154;;;;;;;;;;;;;;
5.126428;8635000;138;;;;;;;;;;;;;;
5.128928;8637500;153;;;;;;;;;;;;;;
5.131428;8640000;152;;;;;;;;;;;;;;
5.133928;8642500;141;;;;;;;;;;;;;;
5.136428;8645000;156;;;;;;;;;;;;;;
5.138928;8647500;335;;;;;;;;;;;;;;
5.141428;8650000;256;;;;;;;;;;;;;;
5.143928;8652500;202;;;;;;;;;;;;;;
5.146428;8655000;152;;;;;;;;;;;;;;
5.148928;8657500;157;;;;;;;;;;;;;;
5.151428;8660000;157;;;;;;;;;;;;;;
5.153928;8662500;152;;;;;;;;;;;;;;
5.156428;8665000;183;;;;;;;;;;;;;;
5.158928;8667500;186;;;;;;;;;;;;;;
5.161428;8670000;168;;;;;;;;;;;;;;
5.163928;8672500;172;;;;;;;;;;;;;;
5.166428;8675000;138;;;;;;;;;;;;;;
5.168928;8677500;359;;;;;;;;;;;;;;
5.171428;8680000;238;;;;;;;;;;;;;;
5.173928;8682500;201;;;;;;;;;;;;;;
5.176428;8685000;189;;;;;;;;;;;;;;
5.178928;8687500;169;;;;;;;;;;;;;;
5.181428;8690000;184;;;;;;;;;;;;;;
5.183928;8692500;152;;;;;;;;;;;;;;
5.186428;8695000;155;;;;;;;;;;;;;;
5.188928;8697500;154;;;;;;;;;;;;;;
5.191428;8700000;128;;;;;;;;;;;;;;
5.193928;8702500;151;;;;;;;;;;;;;;
5.196428;8705000;157;;;;;;;;;;;;;;
5.198928;8707500;363;;;;;;;;;;;;;;
5.201428;8710000;270;;;;;;;;;;;;;;
5.203928;8712500;188;;;;;;;;;;;;;;
5.206428;8715000;172;;;;;;;;;;;;;;
5.208928;8717500;156;;;;;;;;;;;;;;
5.211428;8720000;140;;;;;;;;;;;;;;
5.213928;8722500;170;;;;;;;;;;;;;;
5.216428;8725000;158;;;;;;;;;;;;;;
5.218928;8727500;185;;;;;;;;;;;;;;
5.221428;8730000;185;;;;;;;;;;;;;;
5.223928;8732500;170;;;;;;;;;;;;;;
5.226428;8735000;156;;;;;;;;;;;;;;
