timestamp_s;timestamp_us;emg_raw;imu1_timestamp_us;imu1_ax;imu1_ay;imu1_az;imu1_gx;imu1_gy;imu1_gz;imu2_timestamp_us;imu2_ax;imu2_ay;imu2_az;imu2_gx;imu2_gy;imu2_gz
0.000428;12988469;;12988469;130.1;-474.77;898.696;438.572;-105.011;60.339;12988041;-121.971;-53.34;995.318;1749.94;-87.813;-340.739
0.011709;12999750;;12999750;130.043;-474.833;898.45;381.643;-106.76;63.885;12999322;-121.844;-53.784;995.261;1760.881;-96.548;-341.202
0.022989;13011030;;13011030;129.787;-475.217;898.649;471.498;-109.297;47.128;13010606;-121.962;-53.736;994.853;1779.149;-138.095;-338.58
0.034364;13022405;;13022405;130.008;-474.435;899.076;532.799;-120.02;22.459;13021976;-121.72;-53.959;995.1;1776.379;-170.565;-334.338
0.04573;13033771;;13033771;129.833;-473.906;898.945;463.284;-122.332;30.524;13033347;-121.63;-53.335;995.377;1792.123;-193.537;-334.246
0.057104;13045145;;13045145;129.893;-474.256;898.693;418.682;-111.84;41.247;13044717;-121.722;-53.34;995.482;1753.704;-193.923;-333.284
0.068471;13056512;;13056512;129.748;-474.206;898.617;443.248;-115.873;33.935;13056088;-121.638;-53.747;995.313;1751.331;-177.227;-339.807
0.079845;13067886;;13067886;129.453;-474.291;898.76;483.648;-118.392;31.363;13067458;-121.614;-53.75;995.128;1780.14;-167.928;-345.129
0.091211;13079252;;13079252;129.531;-474.001;898.852;489.216;-127.347;21.045;13078828;-121.548;-53.551;995.202;1780.82;-170.031;-345.373
0.102583;13090624;;13090624;129.338;-474.274;898.775;453.817;-116.605;35.743;13090199;-121.418;-53.515;995.432;1761.779;-169.842;-344.292
0.113952;13101993;;13101993;129.288;-474.399;898.817;478.814;-118.212;28.706;13101569;-121.331;-53.645;995.351;1765.128;-155.225;-342.827
0.125327;13113368;;13113368;129.192;-474.207;898.882;502.561;-124.551;19.395;13112940;-121.352;-53.586;995.262;1793.684;-132.152;-349.311
0.136693;13124734;;13124734;129.15;-474.213;898.859;488.37;-121.824;25.863;13124310;-121.452;-53.658;995.262;1777.062;-120.731;-347.158
0.148068;13136109;;13136109;129.134;-474.494;899.031;452.139;-118.795;31.133;13135680;-121.589;-53.696;995.123;1737.647;-121.257;-342.05
0.159434;13147475;;13147475;129.027;-474.718;898.756;427.782;-116.355;32.201;13147051;-121.573;-53.707;994.795;1726.014;-131.382;-340.697
0.170808;13158849;;13158849;129.103;-474.717;898.684;464.581;-121.038;23.591;13158421;-121.588;-53.84;994.935;1733.339;-162.438;-333.287
0.182175;13170216;;13170216;129.156;-474.234;898.835;506.102;-125.923;14.974;13169791;-121.444;-53.533;995.294;1737.234;-188.879;-330.623
0.193549;13181590;;13181590;129.043;-473.733;898.85;486.484;-122.252;24.725;13181162;-121.514;-53.29;995.64;1736.122;-192.997;-330.279
0.204915;13192956;;13192956;129.002;-473.818;898.73;452.972;-121.827;31.801;13192532;-121.398;-53.206;995.64;1732.004;-187.285;-331.703
0.21629;13204331;;13204331;128.987;-474.173;898.543;464.449;-118.361;30.211;13203903;-121.239;-53.443;995.604;1734.654;-170.045;-337.868
0.227656;13215697;;13215697;128.888;-474.316;898.768;507.726;-118.568;29.138;13215273;-121.387;-53.504;995.472;1754.671;-145.356;-346.787
0.239031;13227072;;13227072;128.848;-474.231;898.891;481.027;-117.452;28.556;13226643;-121.363;-53.543;995.462;1751.812;-143.338;-346.51
0.250397;13238438;;13238438;128.872;-474.377;898.787;446.914;-113.767;35.878;13238014;-121.511;-53.434;995.446;1729.847;-157.171;-340.997
0.261771;13249812;;13249812;128.907;-474.735;898.707;457.818;-113.766;35.835;13249384;-121.456;-53.599;995.456;1720.354;-172.5;-334.885
0.273138;13261179;;13261179;128.854;-474.611;898.802;492.239;-115.953;27.918;13260755;-121.373;-53.64;995.423;1733.649;-178.312;-336.078
0.284512;13272553;;13272553;128.847;-474.195;898.862;479.878;-113.217;31.772;13272125;-121.301;-53.52;995.544;1725.717;-183.834;-332.837
0.295878;13283919;;13283919;128.773;-474.171;898.79;449.759;-107.119;38.496;13283495;-121.22;-53.448;995.823;1698.931;-179.455;-333.695
0.307253;13295294;;13295294;128.745;-474.253;898.753;443.021;-105.263;41.821;13294866;-121.18;-53.539;995.814;1697.109;-170.92;-329.26
0.318619;13306660;;13306660;128.646;-474.196;898.754;466.37;-108.312;34.48;13306236;-121.227;-53.461;995.567;1717.254;-166.749;-331.172
0.329994;13318035;;13318035;128.619;-474.105;898.816;480.239;-108.584;31.881;13317607;-121.406;-53.46;995.638;1719.766;-177.661;-334.738
0.34136;13329401;;13329401;128.599;-474.092;898.814;472.852;-104.905;33.787;13328977;-121.423;-53.373;995.669;1707.715;-188.466;-331.564
0.352734;13340775;;13340775;128.543;-474.044;898.671;457.084;-104.472;34.723;13340347;-121.446;-53.431;995.576;1712.017;-189.98;-328.548
0.364101;13352142;;13352142;128.497;-474.223;898.811;479.292;-104.936;27.736;13351718;-121.51;-53.535;995.482;1715.229;-190.106;-327.871
0.375475;13363516;;13363516;128.459;-474.039;898.815;492.078;-108.439;26.787;13363088;-121.468;-53.39;995.545;1714.342;-192.851;-328.977
0.386842;13374883;;13374883;128.52;-473.896;898.825;479.724;-107.392;30.698;13374459;-121.317;-53.307;995.69;1715.25;-191.958;-331.778
0.398216;13386257;;13386257;128.432;-474.003;898.804;461.425;-104.648;36.6;13385829;-121.382;-53.368;995.736;1712.175;-191.985;-333.127
0.409582;13397623;;13397623;128.501;-473.965;898.778;474.666;-105.978;34.333;13397199;-121.389;-53.457;995.616;1711.879;-196.386;-330.908
0.420957;13408998;;13408998;128.45;-473.904;898.839;488.996;-110.304;32.179;13408570;-121.279;-53.523;995.532;1722.535;-203.192;-331.863
0.432323;13420364;;13420364;128.573;-473.822;898.75;487.733;-113.976;31.882;13419940;-121.187;-53.409;995.653;1719.971;-204.845;-329.27
0.443698;13431739;;13431739;128.592;-473.842;898.746;474.284;-108.715;36.413;13431310;-121.197;-53.453;995.585;1706.597;-198.102;-328.119
0.455064;13443105;;13443105;128.415;-473.915;898.655;475.07;-109.404;36.78;13442681;-121.207;-53.507;995.606;1704.392;-194.322;-330.088
0.466438;13454479;;13454479;128.332;-473.839;898.686;494.191;-111.372;33.191;13454051;-121.234;-53.455;995.456;1710.61;-191.169;-328.021
0.477805;13465846;;13465846;128.357;-473.693;898.696;502.294;-111.49;31.969;13465422;-121.236;-53.429;995.514;1712.142;-196.485;-324.307
0.489179;13477220;;13477220;128.466;-473.755;898.822;494.242;-109.853;36.933;13476792;-121.274;-53.491;995.447;1708.348;-204.598;-323.842
0.500545;13488586;;13488586;128.442;-473.955;898.82;484.843;-112.673;39.899;13488162;-121.188;-53.665;995.426;1709.118;-203.994;-321.65
0.51192;13499961;;13499961;128.431;-474.035;898.763;497.35;-111.415;37.029;13499533;-121.034;-53.812;995.394;1712.912;-195.981;-323.067
0.523286;13511327;;13511327;128.396;-473.898;898.8;506.608;-113.281;34.74;13510903;-120.966;-53.787;995.443;1713.016;-189.245;-320.914
0.534661;13522702;;13522702;128.454;-473.889;898.786;496.59;-109.805;34.315;13522274;-121.085;-53.66;995.453;1702.615;-174.533;-317.993
0.546027;13534068;;13534068;128.266;-473.887;898.719;483.136;-110.002;36.1;13533644;-121.277;-53.6;995.396;1691.86;-164.493;-318.281
0.557401;13545442;;13545442;128.325;-473.849;898.685;486.541;-111.502;35.17;13545014;-121.362;-53.482;995.255;1695.642;-166.769;-318.117
0.568768;13556809;;13556809;128.326;-473.855;898.836;506.839;-112.052;31.661;13556385;-121.369;-53.522;995.293;1701.422;-174.18;-317.961
0.580142;13568183;;13568183;128.345;-473.842;898.942;501.185;-111.699;35.766;13567755;-121.474;-53.499;995.378;1706.476;-189.534;-319.563
0.591509;13579550;;13579550;128.436;-473.94;899.032;491.438;-110.489;38.352;13579126;-121.378;-53.57;995.275;1705.152;-204.995;-319.335
0.602883;13590924;;13590924;128.389;-473.905;898.976;494.866;-108.465;43.435;13590496;-121.178;-53.74;995.184;1703.02;-210.057;-321.306
0.614249;13602290;;13602290;128.442;-473.859;898.905;501.185;-112.229;40.826;13601866;-121.152;-53.584;995.213;1704.931;-208.742;-324.053
0.625624;13613665;;13613665;128.382;-473.712;898.88;502.814;-110.118;40.097;13613237;-121.151;-53.498;995.307;1703.247;-201.805;-322.288
0.63699;13625031;;13625031;128.38;-473.695;898.942;491.235;-110.299;42.467;13624607;-121.212;-53.519;995.293;1701.647;-197.84;-321.048
0.648365;13636406;;13636406;128.457;-473.702;898.964;488.111;-109.597;42.531;13635978;-121.245;-53.509;995.293;1697.94;-193.635;-323.371
0.659731;13647772;;13647772;128.44;-473.777;898.906;494.331;-109.804;40.405;13647348;-121.234;-53.517;995.28;1701.418;-194.016;-322.077
0.671105;13659146;;13659146;128.447;-473.768;898.954;502.864;-110.002;38.384;13658718;-121.328;-53.55;995.377;1706.909;-192.628;-323.911
0.682472;13670513;;13670513;128.344;-473.595;898.994;499.158;-113.252;36.028;13670089;-121.312;-53.495;995.366;1701.626;-196.996;-324.341
0.693846;13681887;;13681887;128.387;-473.626;899.068;482.075;-110.652;37.726;13681459;-121.31;-53.474;995.325;1698.358;-201.146;-323.874
0.705213;13693254;;13693254;128.177;-473.857;898.956;474.597;-112.994;38.465;13692829;-121.29;-53.612;995.414;1700.065;-202.464;-326.055
0.716587;13704628;;13704628;128.143;-473.722;899.087;491.117;-112.157;38.729;13704200;-121.331;-53.64;995.529;1706.062;-206.341;-322.002
0.727953;13715994;;13715994;128.281;-473.686;899.206;493.686;-115.736;35.918;13715570;-121.444;-53.557;995.455;1712.196;-207.836;-323.84
0.739328;13727369;;13727369;128.394;-473.596;899.172;487.814;-115.2;40.247;13726941;-121.429;-53.539;995.373;1707.524;-205.757;-326.023
0.750694;13738735;;13738735;128.434;-473.694;899.219;480.924;-114.252;43.484;13738311;-121.385;-53.527;995.448;1701.335;-201.594;-326.346
0.762075;13750116;;13750116;128.412;-473.824;899.246;489.252;-116.415;43.06;13749688;-121.379;-53.523;995.36;1695.893;-196.327;-327.092
0.773435;13761476;;13761476;128.408;-473.709;899.307;487.54;-117.156;42.22;13761052;-121.337;-53.616;995.404;1694.224;-188.698;-325.612
0.784809;13772850;;13772850;128.344;-473.71;899.238;476.288;-116.111;41.421;13772422;-121.437;-53.662;995.27;1695.262;-188.888;-322.019
0.796176;13784217;;13784217;128.216;-473.815;899.319;486.598;-115.993;38.475;13783793;-121.489;-53.718;995.307;1694.499;-196.506;-322.543
0.80755;13795591;;13795591;128.314;-473.768;899.127;492.018;-120.693;33.489;13795163;-121.527;-53.728;995.421;1700.774;-200.681;-320.853
0.818916;13806957;;13806957;128.291;-473.674;899.121;494.98;-118.159;39.252;13806533;-121.41;-53.695;995.505;1702.361;-202.459;-319.686
0.830291;13818332;;13818332;128.379;-473.677;899.208;495.606;-117.938;40.789;13817904;-121.391;-53.774;995.488;1700.368;-193.212;-322.951
0.841657;13829698;;13829698;128.481;-473.71;899.259;497.513;-117.291;40.062;13829274;-121.33;-53.702;995.367;1700.224;-185.301;-321.241
0.853032;13841073;;13841073;128.468;-473.594;899.253;492.325;-119.739;35.434;13840645;-121.351;-53.725;995.302;1699.65;-184.348;-320.929
0.864398;13852439;;13852439;128.517;-473.668;899.284;491.771;-115.94;37.163;13852015;-121.475;-53.772;995.355;1701.73;-184.318;-321.508
0.875772;13863813;;13863813;128.545;-473.787;899.313;494.308;-115.393;35.304;13863385;-121.398;-53.834;995.443;1703.269;-188.228;-322.932
0.887139;13875180;;13875180;128.437;-473.729;899.329;494.967;-115.748;34.852;13874756;-121.452;-53.717;995.361;1708.668;-194.566;-323.411
0.898513;13886554;;13886554;128.445;-473.893;899.307;497.344;-116.086;34.422;13886126;-121.37;-53.739;995.388;1710.297;-197.525;-325.178
0.909879;13897920;;13897920;128.501;-473.897;899.324;500.039;-115.531;34.451;13897496;-121.438;-53.712;995.443;1705.72;-194.212;-326.856
0.921254;13909295;;13909295;128.48;-473.919;899.351;498.662;-115.88;34.916;13908867;-121.448;-53.625;995.441;1708.371;-187.564;-327.139
0.93262;13920661;;13920661;128.541;-473.885;899.383;498.229;-116.211;36.232;13920237;-121.421;-53.731;995.365;1708.265;-179.498;-329.157
0.943995;13932036;;13932036;128.507;-474.079;899.322;495.63;-115.213;40.983;13931608;-121.364;-53.704;995.398;1705.102;-177.085;-327.574
0.955361;13943402;;13943402;128.517;-474.079;899.264;502.786;-114.702;38.059;13942978;-121.39;-53.758;995.404;1708.659;-178.731;-326.945
0.966736;13954777;;13954777;128.514;-473.976;899.246;506.522;-112.467;37.906;13954349;-121.469;-53.76;995.287;1712.914;-178.545;-329.848
0.978102;13966143;;13966143;128.475;-474.055;899.192;502.196;-112.531;39.073;13965719;-121.563;-53.762;995.317;1705.143;-180.992;-328.668
0.989476;13977517;;13977517;128.481;-474.185;899.244;507.274;-113.467;35.807;13977089;-121.518;-53.844;995.358;1700.823;-182.005;-327.985
1.000843;13988884;;13988884;128.498;-474.101;899.288;510.785;-113.481;38.392;13988460;-121.517;-53.927;995.378;1703.282;-177.28;-329.085
1.012217;14000258;;14000258;128.478;-474.137;899.231;510.183;-113.495;40.847;13999830;-121.682;-53.909;995.392;1706.931;-174.541;-328.819
1.023583;14011624;;14011624;128.399;-474.141;899.184;510.924;-113.508;42.305;14011200;-121.557;-53.903;995.343;1702.959;-172.376;-330.753
1.034958;14022999;;14022999;128.396;-474.187;899.139;510.315;-113.52;46.315;14022571;-121.5;-53.904;995.267;1705.311;-169.445;-331.277
1.046324;14034365;;14034365;128.424;-473.963;899.017;508.424;-114.406;44.436;14033941;-121.354;-53.96;995.157;1707.546;-171.473;-331.776
1.057699;14045740;;14045740;128.444;-473.848;899.03;505.316;-113.498;43.089;14045312;-121.228;-53.989;995.261;1707.481;-177.337;-330.062
1.069065;14057106;;14057106;128.525;-473.848;899.017;503.675;-113.511;44.435;14056682;-121.2;-53.992;995.31;1706.544;-178.095;-331.497
1.080439;14068480;;14068480;128.467;-473.884;898.986;505.179;-112.21;42.651;14068052;-121.069;-54.025;995.315;1708.717;-179.69;-329.359
1.091806;14079847;;14079847;128.515;-473.925;899.0;502.67;-115.35;41.393;14079423;-121.054;-54.014;995.288;1712.094;-185.581;-331.266
1.10318;14091221;;14091221;128.568;-473.909;899.013;507.724;-115.27;40.199;14090793;-121.102;-54.076;995.355;1716.614;-190.739;-332.203
1.114547;14102588;;14102588;128.618;-473.729;898.946;507.275;-115.631;40.376;14102164;-121.043;-54.014;995.497;1724.408;-192.14;-329.155
1.125921;14113962;;14113962;128.769;-473.613;898.889;505.099;-115.1;41.857;14113534;-120.999;-53.973;995.511;1723.5;-191.72;-328.01
1.137287;14125328;;14125328;128.723;-473.686;898.902;499.094;-114.157;43.264;14124904;-121.122;-53.964;995.468;1716.513;-190.884;-325.172
1.148662;14136703;;14136703;128.674;-473.615;898.95;496.452;-117.199;42.414;14136275;-121.136;-53.883;995.477;1716.0;-191.402;-325.539
1.160028;14148069;;14148069;128.645;-473.699;898.862;498.317;-117.464;43.356;14147645;-121.008;-53.83;995.491;1713.325;-187.957;-324.574
1.171403;14159444;;14159444;128.581;-473.689;898.87;494.401;-116.841;45.125;14159016;-121.052;-53.896;995.536;1715.158;-185.997;-325.408
1.182769;14170810;;14170810;128.527;-473.611;898.877;497.681;-116.249;46.807;14170386;-121.008;-53.903;995.565;1716.026;-190.26;-324.45
1.194143;14182184;;14182184;128.505;-473.635;898.848;496.422;-117.437;46.216;14181756;-121.039;-53.892;995.587;1721.224;-190.809;-327.04
1.20551;14193551;;14193551;128.497;-473.603;898.844;501.351;-117.69;47.405;14193127;-121.081;-53.82;995.602;1718.726;-188.706;-323.813
1.216884;14204925;;14204925;128.483;-473.518;898.993;507.783;-117.93;46.785;14204497;-121.06;-53.85;995.653;1713.727;-187.583;-327.31
1.228251;14216292;;14216292;128.489;-473.589;898.909;506.019;-120.346;44.446;14215868;-121.143;-53.787;995.634;1710.291;-186.079;-330.194
1.239625;14227666;;14227666;128.53;-473.523;898.908;500.406;-121.329;47.474;14227238;-121.143;-53.714;995.616;1712.714;-185.963;-332.06
1.250991;14239032;;14239032;128.478;-473.594;898.883;496.823;-119.638;48.6;14238608;-121.144;-53.603;995.636;1711.078;-190.227;-330.769
1.262366;14250407;;14250407;128.325;-473.588;898.817;499.982;-118.468;50.107;14249979;-121.278;-53.485;995.636;1710.399;-188.591;-333.043
1.273732;14261773;;14261773;128.241;-473.534;898.888;498.608;-118.232;48.477;14261349;-121.253;-53.525;995.704;1716.317;-186.161;-332.141
1.285107;14273148;;14273148;128.234;-473.55;898.845;497.302;-117.571;46.928;14272719;-121.248;-53.539;995.707;1713.188;-192.166;-329.972
1.296473;14284514;;14284514;128.257;-473.504;898.885;495.187;-116.942;47.644;14284090;-121.145;-53.515;995.612;1706.716;-192.182;-328.785
1.307847;14295888;;14295888;128.256;-473.637;898.861;493.178;-113.72;52.262;14295460;-121.096;-53.627;995.662;1709.318;-190.448;-332.034
1.319214;14307255;;14307255;128.327;-473.617;898.85;500.019;-114.159;46.586;14306831;-121.032;-53.679;995.753;1714.415;-193.176;-331.182
1.330588;14318629;;14318629;128.371;-473.671;898.816;502.143;-115.014;46.445;14318201;-121.074;-53.587;995.833;1716.194;-195.767;-329.935
1.341953;14329994;;14329994;128.321;-473.741;898.747;490.598;-116.263;48.497;14329571;-121.017;-53.628;995.75;1713.947;-191.666;-326.126
1.353329;14341370;;14341370;128.297;-473.692;898.669;487.506;-115.7;50.885;14340942;-121.005;-53.625;995.671;1711.812;-193.02;-325.57
1.364695;14352736;;14352736;128.336;-473.712;898.692;494.193;-116.477;43.966;14352312;-121.048;-53.731;995.609;1716.784;-191.244;-324.166
1.37607;14364111;;14364111;128.306;-473.578;898.678;494.421;-116.341;43.08;14363683;-120.962;-53.711;995.598;1711.882;-190.87;-321.958
1.387436;14375477;;14375477;128.235;-473.61;898.829;490.262;-115.336;43.551;14375053;-120.977;-53.636;995.68;1713.35;-192.264;-323.36
1.39881;14386851;;14386851;128.167;-473.652;898.784;484.999;-115.257;45.748;14386423;-120.894;-53.632;995.708;1711.683;-191.838;-321.63
1.410177;14398218;;14398218;128.176;-473.613;898.881;486.999;-116.494;43.461;14397794;-120.852;-53.659;995.717;1707.036;-193.184;-320.861
1.421551;14409592;;14409592;128.111;-473.686;898.802;489.774;-116.795;38.663;14409164;-120.812;-53.696;995.732;1713.559;-192.274;-324.068
1.432918;14420959;;14420959;128.165;-473.78;898.813;490.223;-114.892;39.792;14420534;-120.786;-53.708;995.746;1710.131;-189.661;-322.739
1.444292;14432333;;14432333;128.29;-473.74;898.878;485.399;-114.835;42.615;14431905;-120.98;-53.737;995.679;1709.5;-187.615;-320.165
1.455658;14443699;;14443699;128.141;-473.727;898.867;489.567;-113.906;41.797;14443275;-121.044;-53.734;995.659;1712.4;-187.422;-321.657
1.467033;14455074;;14455074;128.181;-473.703;898.783;490.901;-116.523;42.77;14454646;-121.03;-54.006;995.634;1713.405;-185.926;-322.636
1.478399;14466440;;14466440;128.275;-473.716;898.789;496.106;-115.947;41.944;14466016;-121.024;-54.008;995.683;1714.36;-186.692;-325.317
1.489774;14477815;;14477815;128.29;-473.741;898.739;491.863;-118.025;38.534;14477386;-121.024;-53.894;995.657;1710.454;-190.92;-322.176
1.50114;14489181;;14489181;128.415;-473.716;898.723;490.458;-116.936;38.795;14488757;-121.036;-53.901;995.577;1708.931;-189.686;-325.755
1.512514;14500555;;14500555;128.418;-473.723;898.798;493.06;-119.402;34.23;14500127;-120.847;-53.957;995.598;1702.672;-192.015;-322.155
1.523881;14511922;;14511922;128.542;-473.601;898.736;496.407;-120.869;40.394;14511497;-120.862;-53.883;995.564;1707.226;-189.851;-322.672
1.535255;14523296;;14523296;128.496;-473.583;898.75;490.399;-120.951;40.124;14522868;-120.888;-53.811;995.629;1707.177;-186.921;-324.476
1.546621;14534662;;14534662;128.506;-473.535;898.697;485.566;-118.403;39.43;14534238;-120.956;-53.75;995.568;1698.818;-188.513;-324.002
1.557996;14546037;;14546037;128.437;-473.612;898.755;490.163;-116.858;40.084;14545609;-121.002;-53.746;995.542;1699.19;-186.525;-326.177
1.569362;14557403;;14557403;128.463;-473.623;898.829;498.905;-118.89;34.142;14556979;-120.985;-53.761;995.54;1704.356;-187.698;-327.368
1.580737;14568778;;14568778;128.488;-473.555;898.869;492.772;-116.445;33.31;14568349;-120.932;-53.684;995.613;1707.075;-188.376;-326.312
1.59211;14580151;;14580151;128.59;-473.735;898.81;480.821;-116.311;37.332;14579726;-120.93;-53.592;995.553;1703.972;-187.707;-325.746
1.603477;14591518;;14591518;128.517;-473.679;898.869;489.593;-114.87;35.903;14591090;-121.008;-53.542;995.57;1700.148;-185.322;-325.647
1.614844;14602885;;14602885;128.612;-473.505;898.889;500.988;-118.752;32.358;14602461;-121.064;-53.5;995.586;1711.828;-188.743;-326.427
1.626218;14614259;;14614259;128.544;-473.522;898.968;492.126;-118.502;35.115;14613831;-121.062;-53.533;995.643;1712.424;-184.994;-328.48
1.637585;14625626;;14625626;128.552;-473.581;898.849;485.457;-117.826;36.859;14625202;-121.005;-53.638;995.594;1709.053;-184.056;-329.119
1.648959;14637000;;14637000;128.566;-473.661;898.735;490.059;-116.748;38.079;14636572;-121.006;-53.592;995.42;1708.913;-185.791;-326.226
1.660325;14648366;;14648366;128.53;-473.524;898.627;491.806;-119.223;37.925;14647942;-121.05;-53.559;995.535;1716.655;-183.501;-329.602
1.6717;14659741;;14659741;128.6;-473.345;898.604;486.466;-118.512;41.278;14659312;-120.939;-53.45;995.583;1722.259;-183.951;-328.872
1.683066;14671107;;14671107;128.508;-473.37;898.546;482.268;-115.649;42.277;14670683;-120.979;-53.486;995.555;1721.896;-187.004;-329.053
1.694441;14682482;;14682482;128.518;-473.345;898.581;485.279;-117.304;43.226;14682053;-121.091;-53.526;995.45;1721.552;-185.529;-328.788
1.705807;14693848;;14693848;128.571;-473.316;898.475;488.578;-118.438;41.939;14693424;-121.106;-53.619;995.386;1725.161;-187.19;-333.349
1.717181;14705222;;14705222;128.639;-473.22;898.453;491.274;-117.329;43.342;14704794;-121.029;-53.524;995.46;1723.778;-187.455;-330.244
1.728548;14716589;;14716589;128.508;-473.276;898.549;486.398;-116.275;46.863;14716165;-121.047;-53.672;995.524;1720.714;-185.52;-328.169
1.739922;14727963;;14727963;128.463;-473.317;898.456;479.578;-117.024;43.207;14727535;-121.028;-53.734;995.493;1715.179;-185.431;-326.198
1.751288;14739329;;14739329;128.354;-473.374;898.375;485.349;-120.36;42.359;14738905;-121.009;-53.737;995.531;1718.67;-187.972;-326.951
1.762663;14750704;;14750704;128.231;-473.343;898.48;493.457;-119.592;40.679;14750276;-121.089;-53.777;995.464;1718.049;-187.761;-324.603
1.774029;14762070;;14762070;128.359;-473.258;898.47;493.284;-118.863;38.645;14761646;-121.062;-53.711;995.424;1715.709;-188.873;-324.123
1.785404;14773445;;14773445;128.291;-473.154;898.485;484.37;-118.607;43.275;14773017;-121.151;-53.795;995.38;1713.923;-188.617;-323.229
1.79677;14784811;;14784811;128.294;-473.225;898.421;492.089;-115.302;45.049;14784387;-121.212;-53.753;995.338;1714.852;-186.186;-325.005
1.808144;14796185;;14796185;128.247;-473.201;898.475;497.234;-116.099;42.796;14795757;-121.203;-53.853;995.298;1715.735;-184.752;-327.567
1.819511;14807552;;14807552;128.24;-473.215;898.526;497.747;-115.544;43.282;14807128;-121.145;-53.826;995.297;1714.823;-189.514;-327.377
1.830885;14818926;;14818926;128.148;-473.247;898.545;494.298;-116.329;46.368;14818498;-121.157;-53.764;995.357;1710.894;-197.101;-324.133
1.842251;14830292;;14830292;128.31;-473.155;898.459;495.395;-118.825;41.862;14829868;-121.047;-53.741;995.383;1709.35;-205.184;-324.989
1.853626;14841667;;14841667;128.36;-473.257;898.45;496.875;-119.009;45.456;14841239;-121.094;-53.897;995.451;1718.382;-208.924;-324.489
1.864992;14853033;;14853033;128.353;-473.158;898.436;499.594;-120.059;44.496;14852609;-121.066;-53.861;995.479;1716.463;-209.853;-326.202
1.876367;14864408;;14864408;128.31;-473.046;898.453;497.802;-117.993;44.896;14863980;-121.125;-53.877;995.475;1710.265;-207.673;-326.08
1.887733;14875774;;14875774;128.342;-473.178;898.481;489.099;-118.219;45.714;14875350;-121.157;-53.812;995.502;1709.627;-202.102;-325.526
1.899107;14887148;;14887148;128.495;-473.181;898.477;486.519;-116.245;46.49;14886720;-121.132;-53.629;995.509;1707.708;-193.747;-328.937
1.910474;14898515;;14898515;128.591;-473.257;898.449;488.443;-116.995;43.728;14898091;-121.053;-53.735;995.515;1701.948;-185.372;-325.615
1.921848;14909889;;14909889;128.701;-473.012;898.521;488.959;-112.458;45.48;14909461;-120.942;-53.744;995.552;1697.35;-174.791;-324.209
1.933215;14921256;;14921256;128.695;-473.054;898.509;483.323;-112.96;44.956;14920832;-120.983;-53.68;995.551;1702.17;-161.676;-323.749
1.944589;14932630;;14932630;128.629;-473.16;898.455;481.032;-113.437;44.458;14932202;-121.015;-53.772;995.488;1697.999;-152.717;-323.311
1.955956;14943997;;14943997;128.608;-473.268;898.483;482.356;-114.328;43.985;14943572;-121.156;-53.895;995.417;1698.412;-145.082;-321.146
1.96733;14955371;;14955371;128.504;-473.212;898.498;485.363;-115.174;45.286;14954943;-121.296;-53.842;995.391;1700.116;-138.265;-325.214
1.978696;14966737;;14966737;128.416;-473.243;898.585;487.345;-112.478;46.521;14966313;-121.349;-53.846;995.294;1700.423;-140.102;-322.515
1.990071;14978112;;14978112;128.303;-473.347;898.588;488.352;-112.104;43.32;14977684;-121.461;-53.892;995.25;1698.964;-148.409;-323.452
2.001437;14989478;;14989478;128.268;-473.445;898.542;492.81;-113.499;42.029;14989054;-121.464;-53.937;995.239;1699.766;-159.364;-322.154
2.012812;15000853;;15000853;128.327;-473.471;898.45;491.794;-116.136;39.928;15000424;-121.442;-53.838;995.308;1707.09;-174.583;-316.984
2.024178;15012219;;15012219;128.487;-473.441;898.528;497.83;-112.954;42.744;15011795;-121.396;-53.934;995.294;1703.548;-179.854;-315.135
2.035552;15023593;;15023593;128.608;-473.45;898.552;496.563;-111.682;39.732;15023165;-121.231;-53.921;995.245;1701.496;-182.236;-315.566
2.046919;15034960;;15034960;128.723;-473.524;898.557;496.235;-111.348;39.495;15034535;-121.081;-53.842;995.271;1700.858;-181.437;-316.413
2.058293;15046334;;15046334;128.832;-473.412;898.586;498.548;-111.468;43.645;15045906;-121.09;-53.724;995.283;1702.878;-171.053;-318.092
2.069659;15057700;;15057700;128.771;-473.337;898.638;497.246;-110.269;44.088;15057276;-121.075;-53.795;995.319;1700.422;-152.437;-316.625
2.081034;15069075;;15069075;128.792;-473.435;898.694;502.133;-110.006;41.009;15068647;-121.017;-53.765;995.323;1707.713;-136.503;-316.544
2.0924;15080441;;15080441;128.733;-473.517;898.643;508.527;-115.443;40.271;15080017;-121.164;-53.761;995.327;1711.14;-120.49;-314.716
2.103775;15091816;;15091816;128.701;-473.534;898.686;513.288;-117.546;39.132;15091388;-121.267;-53.867;995.361;1709.145;-111.841;-311.231
2.115141;15103182;;15103182;128.69;-473.476;898.532;515.186;-122.169;37.613;15102758;-121.206;-53.802;995.375;1702.875;-106.686;-303.982
2.126515;15114556;;15114556;128.733;-473.507;898.422;514.364;-122.623;34.42;15114128;-121.337;-53.705;995.364;1703.919;-98.727;-301.47
2.137795;15125836;;15125836;128.628;-473.384;898.409;523.209;-124.804;29.636;15125412;-121.327;-53.673;995.402;1710.161;-89.416;-299.521
2.149083;15137124;;15137124;128.626;-473.34;898.409;527.236;-122.939;28.155;15136696;-121.385;-53.667;995.353;1708.215;-82.757;-301.17
2.160362;15148403;;15148403;128.545;-473.371;898.543;520.124;-120.729;32.434;15147979;-121.337;-53.766;995.496;1709.867;-76.87;-300.549
2.17165;15159691;;15159691;128.474;-473.383;898.518;515.555;-123.88;32.125;15159263;-121.285;-53.81;995.369;1703.124;-74.776;-299.522
2.182929;15170970;;15170970;128.401;-473.479;898.525;518.652;-121.186;33.144;15170546;-121.4;-53.743;995.346;1704.592;-78.475;-298.983
2.194217;15182258;;15182258;128.306;-473.571;898.543;515.47;-119.065;34.987;15181830;-121.564;-53.855;995.373;1707.3;-80.676;-298.472
2.205496;15193537;;15193537;128.302;-473.53;898.555;509.384;-118.799;34.55;15193113;-121.677;-53.804;995.246;1704.185;-97.642;-301.923
2.216784;15204825;;15204825;128.304;-473.625;898.718;506.227;-117.671;35.01;15204397;-121.73;-53.712;995.138;1700.351;-119.885;-298.639
2.228151;15216192;;15216192;128.288;-473.606;898.544;507.603;-120.1;30.197;15215767;-121.621;-53.753;995.267;1698.896;-141.453;-300.332
2.239525;15227566;;15227566;128.376;-473.581;898.556;509.786;-117.595;30.875;15227138;-121.488;-53.518;995.322;1695.764;-153.631;-299.753
2.250891;15238932;;15238932;128.509;-473.57;898.64;516.234;-116.966;28.456;15238508;-121.404;-53.544;995.527;1697.6;-154.699;-298.328
2.262266;15250307;;15250307;128.641;-473.432;898.561;518.422;-115.492;28.783;15249879;-121.275;-53.435;995.521;1695.845;-150.464;-299.162
2.273632;15261673;;15261673;128.711;-473.556;898.566;503.439;-118.03;29.969;15261249;-121.293;-53.508;995.478;1692.866;-144.691;-302.579
2.285007;15273048;;15273048;128.675;-473.668;898.479;508.017;-119.129;29.783;15272619;-121.273;-53.48;995.48;1697.472;-143.581;-304.95
2.296373;15284414;;15284414;128.615;-473.738;898.566;518.491;-118.86;27.856;15283990;-121.45;-53.6;995.391;1699.224;-146.465;-307.64
2.307747;15295788;;15295788;128.516;-473.677;898.565;521.441;-117.292;26.026;15295360;-121.599;-53.561;995.281;1709.638;-158.829;-311.945
2.319114;15307155;;15307155;128.526;-473.673;898.545;522.057;-119.74;26.912;15306731;-121.558;-53.726;995.238;1706.843;-178.013;-312.098
2.330488;15318529;;15318529;128.535;-473.712;898.495;514.766;-121.19;25.129;15318101;-121.416;-53.754;995.252;1700.688;-193.175;-312.681
2.341854;15329895;;15329895;128.684;-473.737;898.472;516.153;-119.943;25.623;15329471;-121.366;-53.781;995.302;1705.342;-202.328;-313.234
2.353229;15341270;;15341270;128.789;-473.731;898.5;524.908;-120.509;26.091;15340842;-121.3;-53.825;995.344;1704.074;-202.274;-313.76
2.364595;15352636;;15352636;128.798;-473.639;898.465;518.787;-119.733;29.599;15352212;-121.396;-53.866;995.279;1701.996;-203.098;-313.384
2.37597;15364011;;15364011;128.903;-473.582;898.517;509.473;-115.496;34.244;15363583;-121.444;-53.802;995.31;1700.896;-199.068;-311.715
2.387336;15375377;;15375377;128.893;-473.504;898.499;504.562;-115.409;33.407;15374953;-121.375;-53.833;995.277;1699.414;-196.552;-311.442
2.39871;15386751;;15386751;128.854;-473.674;898.604;513.459;-114.889;34.799;15386323;-121.442;-53.874;995.296;1698.88;-196.787;-312.932
2.410077;15398118;;15398118;128.828;-473.683;898.692;515.348;-115.707;32.184;15397694;-121.495;-53.87;995.258;1703.187;-200.51;-313.036
2.421451;15409492;;15409492;128.871;-473.709;898.586;508.393;-115.171;38.45;15409064;-121.483;-53.922;995.265;1701.152;-211.485;-316.634
2.432817;15420858;;15420858;128.832;-473.783;898.651;503.099;-115.975;40.028;15420434;-121.424;-54.007;995.375;1693.095;-227.161;-315.24
2.444192;15432233;;15432233;128.961;-473.731;898.657;509.006;-118.052;39.339;15431805;-121.367;-53.857;995.352;1691.565;-235.928;-317.415
2.455558;15443599;;15443599;129.021;-473.676;898.681;510.681;-116.524;38.684;15443175;-121.313;-53.823;995.47;1693.612;-239.006;-318.169
2.466933;15454974;;15454974;129.048;-473.697;898.637;507.022;-112.885;37.188;15454546;-121.226;-53.713;995.577;1690.744;-235.368;-319.761
2.478299;15466340;;15466340;128.952;-473.564;898.717;505.296;-111.179;37.078;15465916;-121.173;-53.686;995.647;1688.019;-227.1;-318.648
2.489674;15477715;;15477715;128.964;-473.463;898.647;497.969;-109.12;36.974;15477286;-121.172;-53.65;995.714;1685.868;-210.932;-319.778
2.50104;15489081;;15489081;128.842;-473.506;898.653;498.445;-110.226;39.938;15488657;-121.237;-53.639;995.588;1685.574;-195.136;-323.039
2.512414;15500455;;15500455;128.841;-473.426;898.628;500.648;-109.09;39.254;15500027;-121.361;-53.751;995.615;1685.296;-181.442;-323.512
2.52378;15511821;;15511821;128.719;-473.276;898.77;498.803;-110.198;43.416;15511397;-121.466;-53.753;995.739;1688.531;-176.307;-323.524
2.535155;15523196;;15523196;128.633;-473.341;898.752;491.363;-111.25;43.87;15522768;-121.462;-53.744;995.624;1690.729;-183.242;-323.973
2.546521;15534562;;15534562;128.6;-473.452;898.777;505.732;-110.063;42.989;15534138;-121.495;-53.716;995.564;1696.318;-192.455;-323.962
2.557896;15545937;;15545937;128.63;-473.551;898.814;514.571;-110.685;41.277;15545509;-121.441;-53.793;995.537;1699.44;-203.832;-324.826
2.569262;15557303;;15557303;128.671;-473.535;898.824;518.155;-109.526;38.776;15556879;-121.359;-53.708;995.512;1706.343;-212.453;-327.397
2.580637;15568678;;15568678;128.77;-473.594;898.797;508.434;-108.862;34.212;15568250;-121.416;-53.792;995.488;1703.713;-217.143;-326.34
2.592008;15580049;;15580049;128.712;-473.625;898.79;508.388;-105.169;36.439;15579620;-121.299;-53.75;995.477;1697.277;-218.098;-324.46
2.603377;15591418;;15591418;128.779;-473.581;898.771;516.656;-109.098;31.117;15590990;-121.26;-53.619;995.437;1695.538;-214.631;-324.425
2.614744;15602785;;15602785;128.739;-473.381;898.722;514.448;-109.33;30.874;15602361;-121.243;-53.671;995.502;1692.574;-208.274;-324.391
2.626118;15614159;;15614159;128.659;-473.398;898.688;509.288;-112.614;31.518;15613731;-121.287;-53.573;995.497;1690.195;-208.798;-323.047
2.637484;15625525;;15625525;128.661;-473.317;898.766;514.449;-111.796;27.317;15625101;-121.316;-53.725;995.455;1693.186;-210.17;-324.394
2.648859;15636900;;15636900;128.627;-473.264;898.717;516.726;-111.893;27.701;15636472;-121.271;-53.802;995.361;1699.089;-214.099;-327.862
2.660225;15648266;;15648266;128.442;-473.287;898.854;525.015;-115.486;28.066;15647842;-121.368;-53.875;995.296;1703.384;-220.019;-329.844
2.671605;15659646;;15659646;128.26;-473.346;898.814;517.139;-117.587;30.162;15659213;-121.461;-53.872;995.295;1705.278;-241.393;-332.164
2.682966;15671007;;15671007;128.246;-473.462;898.787;511.845;-114.333;35.217;15670583;-121.342;-53.954;995.33;1703.139;-267.386;-333.056
2.69434;15682381;;15682381;128.245;-473.695;898.665;512.065;-116.491;34.331;15681953;-121.301;-54.019;995.26;1708.982;-293.829;-333.028
2.705707;15693748;;15693748;128.341;-473.678;898.682;528.899;-118.541;33.052;15693324;-121.074;-53.978;995.353;1714.97;-314.138;-333.439
2.717082;15705123;;15705123;128.482;-473.553;898.662;521.704;-122.239;31.837;15704694;-120.968;-53.951;995.501;1722.847;-324.244;-331.642
2.728448;15716489;;15716489;128.603;-473.671;898.613;508.744;-118.752;34.183;15716065;-120.727;-53.882;995.594;1718.079;-322.031;-329.935
2.739822;15727863;;15727863;128.73;-473.711;898.646;509.994;-115.877;37.723;15727435;-120.668;-53.823;995.859;1712.238;-307.68;-334.438
2.751188;15739229;;15739229;128.644;-473.608;898.762;510.745;-115.333;41.962;15738805;-120.546;-53.725;995.909;1708.438;-280.046;-336.967
2.762563;15750604;;15750604;128.69;-473.565;898.72;493.082;-116.129;41.177;15750176;-120.503;-53.625;995.914;1700.454;-252.044;-334.993
2.773929;15761970;;15761970;128.63;-473.628;898.692;478.928;-114.26;49.618;15761546;-120.657;-53.597;995.845;1690.244;-222.816;-331.806
2.785304;15773345;;15773345;128.359;-473.864;898.824;484.732;-114.672;50.199;15772917;-120.748;-53.723;995.762;1694.107;-195.926;-329.216
2.79667;15784711;;15784711;128.292;-473.79;898.761;484.995;-115.939;44.627;15784287;-120.854;-53.721;995.701;1697.776;-181.754;-328.505
2.808045;15796086;;15796086;128.239;-473.946;898.743;476.058;-115.829;48.521;15795657;-120.978;-53.743;995.478;1696.012;-186.667;-326.955
2.819411;15807452;;15807452;128.299;-473.996;898.812;482.88;-116.163;46.97;15807028;-121.078;-53.691;995.566;1698.274;-194.396;-327.232
2.830785;15818826;;15818826;128.381;-473.775;898.852;498.986;-118.667;41.121;15818398;-120.953;-53.63;995.557;1699.548;-206.551;-327.058
2.842151;15830192;;15830192;128.452;-473.687;898.781;485.412;-117.109;44.753;15829768;-120.81;-53.632;995.574;1705.133;-207.598;-330.392
2.853526;15841567;;15841567;128.526;-473.768;898.775;482.141;-117.378;45.577;15841139;-120.845;-53.678;995.614;1694.251;-197.218;-327.873
2.864892;15852933;;15852933;128.663;-473.742;898.677;486.472;-116.322;44.611;15852509;-120.799;-53.672;995.737;1685.664;-179.045;-327.229
2.876267;15864308;;15864308;128.782;-473.784;898.7;478.336;-114.881;42.818;15863880;-120.841;-53.593;995.745;1688.881;-151.28;-325.305
2.887633;15875674;;15875674;128.662;-473.726;898.704;478.919;-113.512;42.865;15875250;-120.93;-53.652;995.764;1686.249;-127.529;-323.477
2.899008;15887049;;15887049;128.537;-473.738;898.732;480.348;-114.399;45.971;15886621;-121.008;-53.708;995.74;1684.187;-118.527;-322.179
2.910374;15898415;;15898415;128.405;-473.64;898.74;482.143;-113.054;44.11;15897991;-121.082;-53.67;995.722;1690.54;-122.226;-323.57
2.921748;15909789;;15909789;128.347;-473.547;898.785;488.223;-115.714;44.092;15909361;-121.115;-53.64;995.718;1700.075;-136.677;-324.891
2.933115;15921156;;15921156;128.304;-473.629;898.766;503.187;-115.615;43.2;15920732;-121.153;-53.752;995.721;1705.197;-154.781;-324.397
2.944489;15932530;;15932530;128.233;-473.512;898.766;509.528;-116.835;41.478;15932102;-121.324;-53.785;995.735;1717.499;-172.854;-326.552
2.955856;15943897;;15943897;128.287;-473.516;898.754;497.176;-118.868;42.904;15943472;-121.272;-53.792;995.7;1717.374;-187.399;-330.787
2.96723;15955271;;15955271;128.321;-473.673;898.646;504.693;-118.174;41.196;15954843;-121.248;-53.78;995.819;1715.506;-190.717;-331.31
2.978596;15966637;;15966637;128.389;-473.743;898.67;508.77;-118.828;38.261;15966213;-121.188;-53.836;995.871;1716.355;-182.931;-333.557
2.989971;15978012;;15978012;128.49;-473.699;898.645;499.082;-115.074;40.723;15977584;-121.125;-53.841;995.841;1707.975;-167.659;-333.504
3.001337;15989378;;15989378;128.453;-473.701;898.517;487.253;-115.883;43.5;15988954;-121.187;-53.839;995.77;1699.576;-158.401;-333.016
3.012712;16000753;;16000753;128.532;-473.635;898.609;489.578;-115.776;47.012;16000324;-121.374;-53.831;995.733;1696.41;-154.856;-330.366
3.024078;16012119;;16012119;128.444;-473.572;898.654;491.349;-117.425;46.849;16011695;-121.551;-53.854;995.729;1698.214;-155.426;-331.347
3.035452;16023493;;16023493;128.439;-473.543;898.63;490.406;-117.679;47.132;16023065;-121.635;-53.802;995.609;1704.304;-168.217;-328.342
3.046819;16034860;;16034860;128.263;-473.492;898.655;486.011;-117.482;49.587;16034435;-121.671;-53.778;995.513;1697.401;-182.119;-326.8
3.058193;16046234;;16046234;128.237;-473.393;898.46;483.148;-119.921;44.921;16045806;-121.609;-53.785;995.55;1695.656;-198.388;-328.398
3.069559;16057600;;16057600;128.328;-473.447;898.659;497.928;-117.862;46.612;16057176;-121.592;-53.707;995.573;1706.248;-205.093;-329.04
3.080934;16068975;;16068975;128.316;-473.278;898.652;508.907;-122.469;38.156;16068547;-121.545;-53.644;995.747;1712.811;-204.464;-328.776
3.0923;16080341;;16080341;128.269;-473.306;898.823;493.524;-111.533;53.749;16079917;-121.415;-53.561;995.705;1700.233;-194.241;-321.962
3.103675;16091716;;16091716;128.34;-473.486;898.723;475.848;-116.894;47.561;16091288;-121.438;-53.768;995.598;1697.034;-175.779;-321.614
3.115041;16103082;;16103082;128.529;-473.504;898.646;497.555;-112.362;48.683;16102658;-121.491;-53.812;995.564;1693.12;-164.802;-320.408
3.126415;16114456;;16114456;128.392;-473.491;898.829;500.677;-111.994;47.124;16114028;-121.486;-53.763;995.616;1695.089;-163.999;-318.825
3.137782;16125823;;16125823;128.493;-473.533;898.796;501.894;-103.769;53.518;16125399;-121.475;-53.783;995.502;1689.084;-166.737;-318.197
3.149156;16137197;;16137197;128.357;-473.512;898.972;498.674;-106.456;50.404;16136769;-121.477;-53.888;995.509;1686.88;-174.588;-318.912
3.160523;16148564;;16148564;128.527;-473.443;898.767;501.303;-108.133;48.322;16148140;-121.491;-53.78;995.406;1695.286;-186.858;-320.904
3.171897;16159938;;16159938;128.36;-473.421;899.042;514.738;-103.164;53.781;16159510;-121.534;-53.653;995.405;1697.584;-193.265;-321.483
3.183263;16171304;;16171304;128.579;-473.418;898.839;510.876;-101.068;54.592;16170880;-121.484;-53.709;995.423;1699.33;-193.665;-323.784
3.194638;16182679;;16182679;128.439;-473.403;899.043;507.207;-99.952;59.737;16182251;-121.486;-53.763;995.483;1692.676;-191.856;-322.47
3.205916;16193957;;16193957;128.568;-473.529;898.877;501.097;-105.892;54.563;16193533;-121.371;-53.813;995.509;1693.792;-188.389;-321.222
3.217292;16205333;;16205333;128.502;-473.557;898.799;507.979;-102.785;56.209;16204904;-121.208;-53.764;995.473;1695.728;-185.532;-320.911
3.228658;16216699;;16216699;128.634;-473.468;898.718;501.83;-106.833;55.149;16216275;-121.229;-53.827;995.457;1689.691;-179.318;-321.49
3.240033;16228074;;16228074;128.669;-473.462;898.843;499.926;-103.679;59.829;16227645;-121.237;-53.838;995.491;1686.582;-173.414;-320.29
3.251399;16239440;;16239440;128.884;-473.451;898.742;491.117;-105.495;55.088;16239016;-121.086;-53.867;995.492;1687.127;-169.556;-318.713
3.262773;16250814;;16250814;128.833;-473.471;898.884;500.249;-103.72;56.708;16250386;-121.15;-53.766;995.439;1688.521;-164.141;-321.153
3.27414;16262181;;16262181;128.808;-473.386;898.891;501.924;-106.409;52.123;16261757;-121.217;-53.688;995.425;1694.22;-165.996;-321.72
3.285514;16273555;;16273555;128.81;-473.458;898.946;490.828;-105.026;59.142;16273127;-121.293;-53.767;995.46;1690.447;-166.446;-324.009
3.29688;16284921;;16284921;128.744;-473.618;898.956;484.662;-105.025;56.622;16284497;-121.352;-53.751;995.396;1695.174;-174.311;-323.559
3.308255;16296296;;16296296;128.699;-473.617;899.001;500.678;-105.899;52.041;16295868;-121.434;-53.796;995.457;1699.228;-178.721;-324.881
3.319621;16307662;;16307662;128.657;-473.696;898.911;492.707;-107.166;50.751;16307238;-121.437;-53.79;995.509;1701.329;-181.16;-325.262
3.330995;16319036;;16319036;128.709;-473.697;898.898;482.947;-107.495;52.589;16318608;-121.429;-53.87;995.467;1692.825;-188.727;-324.311
3.342362;16330403;;16330403;128.666;-473.705;898.861;474.112;-107.371;54.334;16329979;-121.464;-53.83;995.445;1677.746;-188.478;-320.783
3.353736;16341777;;16341777;128.833;-473.761;898.802;487.156;-107.69;54.243;16341349;-121.356;-53.731;995.491;1678.734;-191.742;-316.994
3.365103;16353144;;16353144;128.845;-473.588;898.983;495.611;-108.43;51.968;16352720;-121.169;-53.704;995.59;1684.485;-190.03;-316.457
3.376477;16364518;;16364518;128.905;-473.479;898.863;486.58;-108.696;51.995;16364090;-121.174;-53.666;995.678;1684.698;-184.466;-313.759
3.387843;16375884;;16375884;128.822;-473.37;898.81;483.689;-104.136;55.957;16375460;-121.203;-53.704;995.707;1687.963;-183.992;-312.508
3.399218;16387259;;16387259;128.817;-473.436;898.741;490.129;-106.367;54.035;16386831;-121.231;-53.635;995.734;1695.44;-176.543;-313.945
3.410584;16398625;;16398625;128.842;-473.42;898.718;504.56;-104.111;53.52;16398201;-121.361;-53.583;995.65;1712.168;-172.966;-314.873
3.421957;16409998;;16409998;128.854;-473.405;898.733;511.707;-103.281;54.344;16409572;-121.411;-53.563;995.467;1721.06;-175.692;-316.192
3.433325;16421366;;16421366;128.81;-473.488;898.668;507.997;-102.492;55.565;16420942;-121.446;-53.612;995.384;1718.132;-184.845;-316.132
3.4447;16432741;;16432741;128.732;-473.61;898.594;499.66;-104.367;51.036;16432312;-121.48;-53.621;995.458;1718.85;-191.353;-314.763
3.456066;16444107;;16444107;128.816;-473.719;898.524;504.864;-104.399;50.235;16443683;-121.433;-53.6;995.62;1718.658;-191.848;-315.65
3.46744;16455481;;16455481;128.92;-473.665;898.616;514.184;-103.991;49.473;16455053;-121.297;-53.585;995.676;1720.662;-187.505;-317.805
3.478807;16466848;;16466848;128.886;-473.601;898.495;505.537;-107.542;45.249;16466424;-121.088;-53.608;995.497;1717.317;-184.693;-318.54
3.490181;16478222;;16478222;128.84;-473.625;898.491;489.448;-106.102;49.549;16477794;-121.085;-53.569;995.413;1706.263;-182.02;-318.363
3.501548;16489589;;16489589;128.852;-473.679;898.395;500.413;-108.672;44.447;16489164;-121.094;-53.508;995.571;1708.013;-174.232;-321.257
3.512922;16500963;;16500963;128.857;-473.498;898.481;510.829;-106.301;41.787;16500535;-121.109;-53.516;995.544;1717.112;-164.645;-322.257
3.524288;16512329;;16512329;128.685;-473.437;898.417;493.601;-105.361;42.323;16511905;-121.147;-53.488;995.451;1718.756;-159.913;-324.519
3.535663;16523704;;16523704;128.534;-473.573;898.386;492.546;-104.468;41.081;16523276;-121.129;-53.632;995.54;1713.756;-162.855;-325.356
3.547029;16535070;;16535070;128.585;-473.782;898.393;499.856;-106.682;39.027;16534646;-121.16;-53.652;995.502;1719.068;-161.712;-327.463
3.558403;16546444;;16546444;128.592;-473.743;898.4;505.925;-107.91;41.014;16546016;-121.214;-53.66;995.485;1731.115;-156.689;-330.777
3.56977;16557811;;16557811;128.597;-473.717;898.425;497.692;-106.89;42.463;16557387;-121.308;-53.594;995.42;1728.559;-154.542;-327.801
3.581144;16569185;;16569185;128.67;-473.834;898.344;487.245;-104.608;46.465;16568757;-121.294;-53.671;995.474;1719.569;-153.815;-325.411
3.592511;16580552;;16580552;128.721;-473.956;898.317;488.695;-106.377;42.829;16580128;-121.33;-53.647;995.458;1725.903;-150.937;-322.265
3.603885;16591926;;16591926;128.775;-473.792;898.297;500.135;-107.184;39.375;16591498;-121.272;-53.747;995.436;1727.108;-149.515;-321.902
3.615251;16603292;;16603292;128.723;-473.673;898.327;495.253;-107.074;40.906;16602868;-121.363;-53.89;995.447;1724.315;-154.727;-314.557
3.626626;16614667;;16614667;128.564;-473.566;898.215;491.053;-106.096;39.298;16614239;-121.413;-53.836;995.444;1713.787;-156.178;-312.392
3.637992;16626033;;16626033;128.559;-473.556;898.225;490.563;-107.791;36.021;16625609;-121.448;-53.798;995.436;1712.535;-154.494;-314.272
3.649367;16637408;;16637408;128.64;-473.564;898.222;495.785;-110.276;34.657;16636979;-121.513;-53.756;995.489;1707.408;-154.644;-313.871
3.660733;16648774;;16648774;128.564;-473.578;898.433;495.496;-110.45;33.8;16648350;-121.476;-53.697;995.539;1710.413;-161.787;-313.927
3.672114;16660155;;16660155;128.498;-473.568;898.37;489.096;-112.365;28.172;16659727;-121.392;-53.727;995.605;1708.892;-165.948;-310.481
3.683474;16671515;;16671515;128.368;-473.777;898.397;488.266;-111.122;32.889;16671090;-121.417;-53.688;995.595;1709.635;-171.213;-309.832
3.694848;16682889;;16682889;128.386;-473.756;898.306;492.728;-113.878;30.369;16682461;-121.421;-53.73;995.573;1708.591;-165.277;-311.84
3.706214;16694255;;16694255;128.396;-473.626;898.469;494.779;-110.372;32.351;16693831;-121.438;-53.703;995.491;1712.849;-155.701;-311.998
3.717589;16705630;;16705630;128.478;-473.589;898.381;480.102;-110.978;32.483;16705202;-121.491;-53.873;995.486;1707.706;-145.291;-312.148
3.728955;16716996;;16716996;128.405;-473.602;898.352;477.535;-109.804;35.234;16716572;-121.547;-53.784;995.518;1705.884;-134.964;-313.166
3.74033;16728371;;16728371;128.389;-473.547;898.33;483.846;-112.189;32.597;16727943;-121.49;-53.834;995.592;1708.964;-122.091;-315.008
3.751696;16739737;;16739737;128.387;-473.556;898.383;485.028;-110.517;36.217;16739313;-121.467;-53.777;995.478;1715.391;-124.299;-315.882
3.76307;16751111;;16751111;128.379;-473.631;898.482;485.714;-111.554;34.407;16750683;-121.621;-53.851;995.352;1710.559;-139.084;-313.213
3.774437;16762478;;16762478;128.328;-473.679;898.57;484.179;-110.789;34.436;16762054;-121.701;-53.843;995.306;1708.156;-151.817;-315.053
3.785811;16773852;;16773852;128.354;-473.754;898.604;492.345;-111.812;31.839;16773424;-121.643;-53.896;995.335;1715.936;-166.976;-313.737
3.797177;16785218;;16785218;128.347;-473.692;898.576;498.79;-113.659;32.435;16784794;-121.667;-53.763;995.356;1722.889;-180.065;-314.676
3.808552;16796593;;16796593;128.383;-473.785;898.653;498.35;-111.038;32.563;16796165;-121.653;-53.844;995.395;1720.745;-188.562;-314.692
3.819918;16807959;;16807959;128.388;-473.874;898.501;493.558;-112.049;31.373;16807535;-121.683;-53.891;995.432;1716.52;-189.196;-310.77
3.831293;16819334;;16819334;128.422;-473.848;898.6;497.318;-110.821;33.304;16818906;-121.638;-53.819;995.436;1715.131;-184.111;-313.169
3.842659;16830700;;16830700;128.546;-473.744;898.59;502.202;-112.28;33.389;16830276;-121.607;-53.727;995.379;1712.062;-178.843;-312.385
3.854034;16842075;;16842075;128.518;-473.634;898.648;499.404;-110.166;34.782;16841647;-121.59;-53.798;995.356;1709.147;-174.276;-310.766
3.8654;16853441;;16853441;128.533;-473.638;898.679;489.309;-110.783;34.793;16853017;-121.513;-53.707;995.419;1707.252;-170.812;-310.54
3.876774;16864815;;16864815;128.414;-473.594;898.744;490.656;-110.056;35.678;16864387;-121.403;-53.815;995.387;1701.952;-171.022;-308.138
3.888141;16876182;;16876182;128.398;-473.509;898.752;491.936;-115.053;33.894;16875758;-121.39;-53.839;995.363;1704.354;-175.158;-306.294
3.899515;16887556;;16887556;128.487;-473.398;898.729;498.401;-115.426;34.387;16887128;-121.488;-53.892;995.286;1706.636;-175.15;-308.479
3.910881;16898922;;16898922;128.443;-473.262;898.865;500.606;-117.529;33.543;16898498;-121.483;-53.9;995.31;1710.992;-177.33;-308.368
3.922256;16910297;;16910297;128.536;-473.273;898.739;495.701;-114.716;34.49;16909869;-121.454;-53.803;995.351;1705.505;-181.151;-309.574
3.933622;16921663;;16921663;128.478;-473.369;898.838;495.416;-116.855;35.391;16921239;-121.475;-53.815;995.432;1700.73;-175.594;-306.346
3.944997;16933038;;16933038;128.599;-473.393;898.737;500.833;-119.325;32.309;16932610;-121.526;-53.882;995.461;1705.381;-167.689;-308.966
3.956363;16944404;;16944404;128.489;-473.36;898.702;497.666;-118.608;34.631;16943980;-121.531;-53.896;995.464;1703.237;-162.367;-308.83
3.967738;16955779;;16955779;128.433;-473.415;898.663;488.533;-116.178;35.962;16955350;-121.579;-53.843;995.504;1699.887;-159.936;-309.138
3.979104;16967145;;16967145;128.367;-473.48;898.644;491.231;-116.931;35.914;16966721;-121.454;-53.877;995.492;1698.456;-160.252;-308.994
3.990478;16978519;;16978519;128.348;-473.522;898.626;502.107;-118.522;34.118;16978091;-121.493;-53.818;995.536;1704.97;-165.802;-310.169
4.001845;16989886;;16989886;128.299;-473.575;898.664;503.689;-120.034;33.725;16989461;-121.598;-53.854;995.474;1705.034;-171.512;-309.098
4.013219;17001260;;17001260;128.295;-473.558;898.688;500.817;-118.845;35.976;17000832;-121.575;-53.852;995.513;1703.345;-179.124;-308.956
4.024585;17012626;;17012626;128.365;-473.585;898.564;498.964;-119.465;35.927;17012202;-121.529;-53.733;995.501;1698.678;-184.167;-311.446
4.03596;17024001;;17024001;128.351;-473.678;898.593;502.453;-118.304;35.006;17023573;-121.382;-53.804;995.502;1702.557;-185.021;-313.373
4.047326;17035367;;17035367;128.491;-473.631;898.657;500.956;-115.451;35.443;17034943;-121.279;-53.865;995.522;1706.241;-188.458;-310.83
4.058701;17046742;;17046742;128.527;-473.593;898.62;494.72;-113.179;36.733;17046314;-121.205;-53.849;995.558;1705.367;-186.035;-311.038
4.070067;17058108;;17058108;128.493;-473.606;898.585;489.672;-111.457;35.772;17057684;-121.196;-53.92;995.593;1705.411;-173.233;-310.799
4.081442;17069483;;17069483;128.443;-473.6;898.625;487.938;-112.447;36.171;17069054;-121.407;-53.817;995.601;1704.578;-163.259;-311.446
4.092808;17080849;;17080849;128.456;-473.612;898.663;488.916;-112.512;35.675;17080425;-121.455;-53.853;995.518;1699.849;-161.221;-312.937
4.104182;17092223;;17092223;128.408;-473.648;898.754;487.22;-111.699;33.891;17091795;-121.531;-53.942;995.414;1697.982;-162.348;-310.852
4.115549;17103590;;17103590;128.447;-473.658;898.712;485.609;-111.364;33.946;17103166;-121.463;-53.941;995.279;1702.77;-171.73;-314.122
4.126923;17114964;;17114964;128.296;-473.656;898.722;488.891;-112.358;35.311;17114536;-121.435;-53.97;995.261;1707.756;-185.456;-312.416
4.138289;17126330;;17126330;128.237;-473.574;898.688;495.072;-113.303;33.546;17125906;-121.366;-54.023;995.371;1703.306;-196.746;-311.233
4.149664;17137705;;17137705;128.316;-473.569;898.607;494.381;-115.513;34.494;17137277;-121.336;-53.926;995.391;1703.016;-207.471;-312.734
4.16103;17149071;;17149071;128.311;-473.51;898.731;490.662;-114.112;36.269;17148647;-121.357;-53.804;995.428;1704.49;-204.098;-313.722
4.172405;17160446;;17160446;128.215;-473.557;898.77;494.129;-111.907;37.08;17160017;-121.377;-53.89;995.402;1708.078;-199.58;-314.661
4.183771;17171812;;17171812;128.258;-473.572;898.751;495.235;-113.311;36.101;17171388;-121.28;-53.94;995.378;1704.049;-197.039;-315.553
4.195145;17183186;;17183186;128.281;-473.512;898.698;497.16;-114.646;34.296;17182758;-121.353;-54.013;995.397;1705.034;-186.749;-315.088
4.206512;17194553;;17194553;128.345;-473.572;898.677;495.49;-113.288;33.457;17194129;-121.318;-53.972;995.354;1705.095;-181.349;-315.083
4.217886;17205927;;17205927;128.308;-473.525;898.633;495.653;-112.436;33.096;17205499;-121.273;-54.067;995.21;1706.465;-181.032;-317.704
4.229252;17217293;;17217293;128.322;-473.51;898.634;498.433;-116.002;27.941;17216869;-121.248;-53.925;995.232;1704.267;-184.668;-315.381
4.240627;17228668;;17228668;128.372;-473.417;898.641;497.574;-117.202;29.607;17228240;-121.115;-53.87;995.331;1705.241;-191.184;-317.112
4.252;17240041;;17240041;128.401;-473.482;898.593;492.382;-115.717;31.627;17239610;-121.178;-53.733;995.432;1701.792;-190.813;-320.944
4.263368;17251409;;17251409;128.313;-473.652;898.645;492.263;-113.869;35.733;17250981;-121.17;-54.005;995.461;1699.827;-192.647;-323.709
4.274734;17262775;;17262775;128.333;-473.626;898.688;496.525;-116.925;33.946;17262351;-121.199;-54.007;995.452;1706.273;-196.577;-323.274
4.286108;17274149;;17274149;128.272;-473.606;898.68;497.949;-117.204;32.686;17273721;-121.166;-53.96;995.522;1705.397;-199.436;-323.298
4.297475;17285516;;17285516;128.313;-473.57;898.813;495.801;-116.156;33.239;17285092;-121.202;-53.921;995.547;1709.377;-197.339;-321.57
4.308849;17296890;;17296890;128.296;-473.62;898.823;498.574;-116.473;33.765;17296462;-121.132;-53.891;995.478;1710.096;-198.847;-320.804
4.320216;17308257;;17308257;128.268;-473.631;898.814;500.77;-118.525;36.452;17307833;-121.114;-53.862;995.328;1713.403;-197.217;-323.577
4.331597;17319638;;17319638;128.229;-473.679;898.867;501.982;-117.849;35.942;17319203;-121.152;-53.865;995.411;1715.233;-190.856;-323.585
4.342956;17330997;;17330997;128.247;-473.663;898.814;503.57;-118.519;35.895;17330573;-121.109;-53.697;995.459;1713.472;-185.251;-323.156
4.354331;17342372;;17342372;128.233;-473.648;898.891;498.079;-116.53;37.6;17341944;-121.184;-53.66;995.376;1706.548;-177.301;-320.123
4.365697;17353738;;17353738;128.208;-473.713;898.836;494.613;-117.704;37.47;17353314;-121.243;-53.655;995.353;1702.596;-174.561;-319.867
4.377072;17365113;;17365113;128.215;-473.665;898.815;495.257;-116.193;37.784;17364684;-121.214;-53.729;995.343;1701.903;-175.458;-319.624
4.388438;17376479;;17376479;128.191;-473.765;898.837;498.057;-118.696;40.707;17376055;-121.174;-53.617;995.401;1706.933;-183.31;-318.518
4.399812;17387853;;17387853;128.339;-473.654;898.779;499.404;-118.886;39.547;17387425;-121.154;-53.645;995.352;1705.149;-189.019;-317.467
4.411179;17399220;;17399220;128.266;-473.828;898.816;503.309;-116.88;41.069;17398796;-121.166;-53.683;995.348;1711.329;-198.381;-319.093
4.422553;17410594;;17410594;128.337;-473.798;898.759;509.643;-119.786;38.141;17410166;-121.135;-53.689;995.387;1715.013;-203.337;-320.639
4.433919;17421960;;17421960;128.398;-473.868;898.881;504.724;-116.421;41.484;17421536;-121.123;-53.737;995.443;1714.574;-196.233;-322.107
4.445294;17433335;;17433335;128.487;-473.922;898.839;501.8;-117.163;37.66;17432907;-121.143;-53.673;995.398;1710.221;-189.046;-322.189
4.45666;17444701;;17444701;128.498;-473.845;898.909;506.897;-114.805;36.214;17444277;-121.167;-53.808;995.447;1703.022;-180.469;-323.579
4.468035;17456076;;17456076;128.454;-473.882;898.909;499.928;-114.314;33.529;17455648;-121.27;-53.747;995.505;1698.809;-172.758;-324.463
4.479401;17467442;;17467442;128.333;-473.904;898.859;502.056;-112.099;34.477;17467018;-121.386;-53.81;995.494;1694.368;-168.057;-325.74
4.490776;17478817;;17478817;128.345;-473.755;898.849;507.141;-113.931;32.316;17478388;-121.404;-53.792;995.349;1695.837;-171.904;-326.515
4.502142;17490183;;17490183;128.205;-473.717;898.747;508.034;-114.36;33.325;17489759;-121.403;-53.634;995.51;1701.17;-176.872;-325.94
4.513516;17501557;;17501557;128.175;-473.736;898.749;508.007;-113.892;34.284;17501129;-121.439;-53.599;995.571;1702.737;-183.341;-328.018
4.524883;17512924;;17512924;128.257;-473.742;898.756;511.919;-112.135;36.507;17512500;-121.461;-53.713;995.532;1707.288;-189.486;-329.992
4.536257;17524298;;17524298;128.194;-473.716;898.873;513.886;-111.34;34.244;17523870;-121.574;-53.681;995.446;1705.923;-194.012;-327.93
4.547623;17535664;;17535664;128.135;-473.674;898.801;503.066;-114.086;32.094;17535240;-121.619;-53.65;995.578;1706.377;-199.624;-329.033
4.558998;17547039;;17547039;128.273;-473.707;898.842;501.976;-114.069;30.49;17546611;-121.663;-53.597;995.727;1709.433;-197.518;-325.707
4.570364;17558405;;17558405;128.234;-473.617;898.936;504.002;-114.491;31.59;17557981;-121.704;-53.54;995.821;1711.462;-190.704;-325.609
4.581739;17569780;;17569780;128.282;-473.506;899.002;501.552;-115.329;32.198;17569351;-121.719;-53.584;995.732;1710.763;-183.794;-325.078
4.593105;17581146;;17581146;128.23;-473.499;899.045;496.162;-114.375;30.151;17580722;-121.69;-53.479;995.734;1709.225;-177.667;-326.324
4.604479;17592520;;17592520;128.267;-473.59;899.214;497.166;-110.843;29.081;17592092;-121.803;-53.574;995.748;1706.889;-171.408;-324.883
4.615846;17603887;;17603887;128.136;-473.627;899.272;502.933;-111.864;29.377;17603463;-121.795;-53.653;995.755;1710.357;-171.588;-323.514
4.62722;17615261;;17615261;128.208;-473.424;899.137;498.786;-112.833;26.595;17614833;-121.781;-53.55;995.688;1711.027;-177.884;-323.088
4.638587;17626628;;17626628;128.178;-473.397;899.125;493.972;-111.129;30.953;17626203;-121.761;-53.563;995.692;1711.663;-182.114;-323.121
4.649961;17638002;;17638002;128.29;-473.407;899.168;503.836;-112.135;32.905;17637574;-121.724;-53.648;995.756;1714.455;-181.759;-322.278
4.661327;17649368;;17649368;128.226;-473.35;899.252;506.206;-114.403;35.635;17648944;-121.811;-53.528;995.824;1717.982;-176.608;-321.914
4.672702;17660743;;17660743;128.36;-473.265;899.229;492.271;-115.246;36.916;17660315;-121.674;-53.56;995.906;1714.333;-168.215;-319.818
4.684068;17672109;;17672109;128.31;-473.264;899.236;486.47;-114.296;42.508;17671685;-121.538;-53.608;995.789;1708.241;-160.242;-318.702
4.695442;17683483;;17683483;128.299;-473.232;899.073;487.522;-116.456;39.507;17683055;-121.555;-53.624;995.666;1714.267;-152.667;-317.642
