timestamp_s;timestamp_us;emg_raw;imu1_timestamp_us;imu1_ax;imu1_ay;imu1_az;imu1_gx;imu1_gy;imu1_gz;imu2_timestamp_us;imu2_ax;imu2_ay;imu2_az;imu2_gx;imu2_gy;imu2_gz
0.0;44854683;18;;;;;;;;;;;;;;
0.0025;44857183;8;;;;;;;;;;;;;;
0.005;44859683;16;;;;;;;;;;;;;;
0.005041;44859724;217;;;;;;;;;;;;;;
0.0075;44862183;8;;;;;;;;;;;;;;
0.007541;44862224;19;;;;;;;;;;;;;;
0.01;44864683;9;;;;;;;;;;;;;;
0.010041;44864724;8;;;;;;;;;;;;;;
0.012541;44867224;9;;;;;;;;;;;;;;
0.015041;44869724;17;;;;;;;;;;;;;;
0.017541;44872224;18;;;;;;;;;;;;;;
0.020041;44874724;16;;;;;;;;;;;;;;
0.02864;44883323;10;;;;;;;;;;;;;;
0.03114;44885823;455;44886125;579.061;769.415;253.816;-3453.094;864.8;-198.774;44885687;253.277;861.46;-420.422;-632.412;-2108.584;-1908.523
0.03364;44888323;25;;;;;;;;;;;;;;
0.03614;44890823;17;;;;;;;;;;;;;;
0.03864;44893323;9;;;;;;;;;;;;;;
0.04114;44895823;8;;;;;;;;;;;;;;
0.043893;44898576;3002;;;;;;;;;;;;;;
0.044262;44898945;7;;;;;;;;;;;;;;
0.046393;44901076;3146;;;;;;;;;;;;;;
0.046762;44901445;8;;;;;;;;;;;;;;
0.048893;44903576;2460;;;;;;;;;;;;;;
0.049262;44903945;8;;;;;;;;;;;;;;
0.051393;44906076;1818;;;;;;;;;;;;;;
0.053893;44908576;1199;;;;;;;;;;;;;;
0.056393;44911076;653;44910777;578.021;768.563;255.04;-3771.751;898.997;-215.96;44910338;251.013;860.996;-421.074;-1090.354;-2325.592;-2059.41
0.058893;44913576;141;;;;;;;;;;;;;;
0.061393;44916076;600;;;;;;;;;;;;;;
0.063893;44918576;4095;;;;;;;;;;;;;;
0.066393;44921076;4095;;;;;;;;;;;;;;
0.080889;44935572;3625;;;;;;;;;;;;;;
0.083389;44938072;2894;44938814;577.406;768.236;256.885;-4030.726;850.11;-254.6;44938379;249.266;860.982;-420.748;-1277.336;-2685.313;-2292.877
0.085889;44940572;2232;;;;;;;;;;;;;;
0.088389;44943072;1561;;;;;;;;;;;;;;
0.089587;44944270;4095;;;;;;;;;;;;;;
0.090889;44945572;936;;;;;;;;;;;;;;
0.092087;44946770;4095;;;;;;;;;;;;;;
0.093389;44948072;3029;;;;;;;;;;;;;;
0.094587;44949270;3439;;;;;;;;;;;;;;
0.097087;44951770;2365;;;;;;;;;;;;;;
0.099587;44954270;1324;;;;;;;;;;;;;;
0.102087;44956770;365;;;;;;;;;;;;;;
0.104587;44959270;10;;;;;;;;;;;;;;
0.114286;44968969;3357;;;;;;;;;;;;;;
0.116786;44971469;4095;44971707;576.937;768.571;258.919;-4321.814;766.917;-381.432;44971268;247.142;861.956;-420.933;-1593.657;-3066.86;-2390.858
0.119286;44973969;4095;;;;;;;;;;;;;;
0.121786;44976469;3289;;;;;;;;;;;;;;
0.122979;44977662;18;;;;;;;;;;;;;;
0.124286;44978969;1818;;;;;;;;;;;;;;
0.125479;44980162;11;;;;;;;;;;;;;;
0.126786;44981469;414;;;;;;;;;;;;;;
0.127979;44982662;4095;;;;;;;;;;;;;;
0.130479;44985162;4095;;;;;;;;;;;;;;
0.132979;44987662;4095;;;;;;;;;;;;;;
0.135479;44990162;3262;;;;;;;;;;;;;;
0.137979;44992662;1372;;;;;;;;;;;;;;
0.147479;45002162;4095;;;;;;;;;;;;;;
0.149979;45004662;4095;45004518;576.107;768.591;260.692;-4690.661;627.509;-479.173;45004079;244.838;862.059;-421.23;-1982.537;-3568.892;-2489.627
0.15162;45006303;22;;;;;;;;;;;;;;
0.152479;45007162;3336;;;;;;;;;;;;;;
0.15412;45008803;19;;;;;;;;;;;;;;
0.154979;45009662;1040;;;;;;;;;;;;;;
0.15662;45011303;8;;;;;;;;;;;;;;
0.157479;45012162;21;;;;;;;;;;;;;;
0.15912;45013803;4095;;;;;;;;;;;;;;
0.159979;45014662;16;;;;;;;;;;;;;;
0.162479;45017162;9;;;;;;;;;;;;;;
0.164979;45019662;4095;;;;;;;;;;;;;;
0.176011;45030694;4095;;;;;;;;;;;;;;
0.178511;45033194;4095;;;;;;;;;;;;;;
0.181011;45035694;3917;45034900;574.703;768.811;262.645;-5088.315;425.946;-574.215;45034462;241.831;862.565;-420.762;-2332.722;-4114.072;-2548.458
0.183511;45038194;827;;;;;;;;;;;;;;
0.18435;45039033;4095;;;;;;;;;;;;;;
0.186011;45040694;19;;;;;;;;;;;;;;
0.18685;45041533;4095;;;;;;;;;;;;;;
0.188511;45043194;17;;;;;;;;;;;;;;
0.18935;45044033;4095;;;;;;;;;;;;;;
0.191011;45045694;360;;;;;;;;;;;;;;
0.19185;45046533;4095;;;;;;;;;;;;;;
0.19435;45049033;760;;;;;;;;;;;;;;
0.19685;45051533;19;;;;;;;;;;;;;;
0.19935;45054033;9;;;;;;;;;;;;;;
0.20185;45056533;698;45057724;573.113;769.148;264.238;-5419.274;226.586;-737.566;45057288;238.036;863.734;-419.909;-2670.211;-4639.431;-2543.098
0.20435;45059033;4095;;;;;;;;;;;;;;
0.20685;45061533;4095;;;;;;;;;;;;;;
0.20935;45064033;4095;;;;;;;;;;;;;;
0.21185;45066533;4095;;;;;;;;;;;;;;
0.21435;45069033;809;;;;;;;;;;;;;;
0.217281;45071964;20;;;;;;;;;;;;;;
0.219781;45074464;16;;;;;;;;;;;;;;
0.222281;45076964;1703;;;;;;;;;;;;;;
0.224781;45079464;4095;;;;;;;;;;;;;;
0.227281;45081964;4095;;;;;;;;;;;;;;
0.229781;45084464;4095;;;;;;;;;;;;;;
0.232281;45086964;4095;;;;;;;;;;;;;;
0.234781;45089464;1039;45090277;572.231;769.444;266.374;-5663.686;37.194;-947.875;45089839;235.369;864.535;-419.367;-3002.2;-5076.397;-2562.506
0.237281;45091964;22;;;;;;;;;;;;;;
0.239781;45094464;8;;;;;;;;;;;;;;
0.242281;45096964;2238;;;;;;;;;;;;;;
0.244781;45099464;4095;;;;;;;;;;;;;;
0.246288;45100971;4095;;;;;;;;;;;;;;
0.248788;45103471;4095;;;;;;;;;;;;;;
0.251288;45105971;4095;;;;;;;;;;;;;;
0.253788;45108471;1406;;;;;;;;;;;;;;
0.256288;45110971;22;;;;;;;;;;;;;;
0.258788;45113471;9;;;;;;;;;;;;;;
0.261288;45115971;2633;;;;;;;;;;;;;;
0.263788;45118471;4095;;;;;;;;;;;;;;
0.266288;45120971;4095;45121003;571.338;769.347;267.988;-5873.126;-153.228;-1138.482;45120567;232.543;864.35;-419.01;-3236.215;-5472.702;-2511.38
0.268788;45123471;4095;;;;;;;;;;;;;;
0.271288;45125971;4095;;;;;;;;;;;;;;
0.273788;45128471;1849;;;;;;;;;;;;;;
0.276288;45130971;25;;;;;;;;;;;;;;
0.279579;45134262;17;;;;;;;;;;;;;;
0.282079;45136762;2938;;;;;;;;;;;;;;
0.284579;45139262;4095;;;;;;;;;;;;;;
0.287079;45141762;4095;;;;;;;;;;;;;;
0.289579;45144262;4095;;;;;;;;;;;;;;
0.292079;45146762;4095;;;;;;;;;;;;;;
0.294579;45149262;2287;;;;;;;;;;;;;;
0.297079;45151762;27;;;;;;;;;;;;;;
0.299579;45154262;18;45153814;570.361;769.681;270.375;-5985.032;-416.817;-1321.745;45153376;229.786;865.363;-417.793;-3301.905;-5846.567;-2402.436
0.302079;45156762;3176;;;;;;;;;;;;;;
0.304579;45159262;4095;;;;;;;;;;;;;;
0.307079;45161762;4095;;;;;;;;;;;;;;
0.309579;45164262;4095;;;;;;;;;;;;;;
0.312982;45167665;4095;;;;;;;;;;;;;;
0.315482;45170165;2872;;;;;;;;;;;;;;
0.317982;45172665;30;;;;;;;;;;;;;;
0.320482;45175165;17;;;;;;;;;;;;;;
0.322982;45177665;3323;;;;;;;;;;;;;;
0.325482;45180165;4095;;;;;;;;;;;;;;
0.327982;45182665;4095;;;;;;;;;;;;;;
0.330482;45185165;4095;;;;;;;;45186271;226.257;867.18;-416.173;-3539.309;-6239.363;-2230.689
0.332982;45187665;4095;45186706;568.634;770.182;272.967;-6211.656;-695.663;-1521.22;;;;;;;
0.335482;45190165;3113;;;;;;;;;;;;;;
0.337982;45192665;30;;;;;;;;;;;;;;
0.340482;45195165;9;;;;;;;;;;;;;;
0.342982;45197665;3358;;;;;;;;;;;;;;
0.350227;45204910;4095;;;;;;;;;;;;;;
0.352727;45207410;4095;;;;;;;;;;;;;;
0.355227;45209910;4095;;;;;;;;;;;;;;
0.357727;45212410;3162;;;;;;;;;;;;;;
0.360227;45214910;31;;;;;;;;;;;;;;
0.362727;45217410;17;;;;;;;;;;;;;;
0.365227;45219910;3374;45219347;567.061;770.848;275.075;-6384.51;-1003.005;-1776.347;45218908;223.026;867.723;-414.421;-3637.969;-6625.645;-2123.53
0.367727;45222410;4095;;;;;;;;;;;;;;
0.370227;45224910;4095;;;;;;;;;;;;;;
0.372727;45227410;4095;;;;;;;;;;;;;;
0.374202;45228885;4095;;;;;;;;;;;;;;
0.375227;45229910;4095;;;;;;;;;;;;;;
0.377727;45232410;3214;;;;;;;;;;;;;;
0.379853;45234536;38;;;;;;;;;;;;;;
0.382353;45237036;17;;;;;;;;;;;;;;
0.384853;45239536;3434;;;;;;;;;;;;;;
0.387353;45242036;4095;;;;;;;;;;;;;;
0.389853;45244536;4095;;;;;;;;;;;;;;
0.392353;45247036;4095;;;;;;;;;;;;;;
0.394853;45249536;4095;;;;;;;;;;;;;;
0.397353;45252036;3786;45252496;565.743;772.047;276.943;-6428.847;-1334.792;-2109.717;45252058;220.013;869.117;-412.061;-3619.695;-6919.113;-1885.229
0.399853;45254536;40;;;;;;;;;;;;;;
0.402353;45257036;18;;;;;;;;;;;;;;
0.404853;45259536;3512;;;;;;;;;;;;;;
0.407353;45262036;4095;;;;;;;;;;;;;;
0.409026;45263709;4095;;;;;;;;;;;;;;
0.411526;45266209;4095;;;;;;;;;;;;;;
0.414026;45268709;4095;;;;;;;;;;;;;;
0.416526;45271209;3432;;;;;;;;;;;;;;
0.419026;45273709;42;;;;;;;;;;;;;;
0.421526;45276209;157;;;;;;;;;;;;;;
0.424026;45278709;3577;;;;;;;;;;;;;;
0.426526;45281209;4095;;;;;;;;;;;;;;
0.429026;45283709;4095;45283670;564.906;772.558;279.316;-6474.905;-1651.303;-2466.231;45283227;217.54;871.35;-409.709;-3548.085;-7129.657;-1658.405
0.431526;45286209;4095;;;;;;;;;;;;;;
0.434026;45288709;4095;;;;;;;;;;;;;;
0.436526;45291209;3643;;;;;;;;;;;;;;
0.439026;45293709;46;;;;;;;;;;;;;;
0.454824;45309507;4095;;;;;;;;;;;;;;
0.457324;45312007;4095;;;;;;;;;;;;;;
0.459824;45314507;4095;;;;;;;;;;;;;;
0.462324;45317007;4027;45316729;563.732;773.086;281.637;-6583.847;-1856.175;-2815.857;45316291;215.264;873.624;-406.639;-3682.181;-7244.362;-1364.609
0.464824;45319507;54;;;;;;;;;;;;;;
0.466587;45321270;217;;;;;;;;;;;;;;
0.467324;45322007;599;;;;;;;;;;;;;;
0.469087;45323770;3657;;;;;;;;;;;;;;
0.469824;45324507;3724;;;;;;;;;;;;;;
0.471587;45326270;4095;;;;;;;;;;;;;;
0.472324;45327007;4095;;;;;;;;;;;;;;
0.474824;45329507;4095;;;;;;;;;;;;;;
0.476246;45330929;4095;;;;;;;;;;;;;;
0.477324;45332007;4095;;;;;;;;;;;;;;
0.478746;45333429;4025;;;;;;;;;;;;;;
0.481246;45335929;59;;;;;;;;;;;;;;
0.483746;45338429;858;;;;;;;;;;;;;;
0.486246;45340929;3928;;;;;;;;;;;;;;
0.488746;45343429;4095;;;;;;;;;;;;;;
0.491246;45345929;4095;;;;;;;;;;;;;;
0.493746;45348429;4095;;;;;;;;45349446;213.163;873.979;-403.887;-3999.447;-7268.019;-1052.254
0.496246;45350929;4095;45349884;562.556;774.154;284.33;-6797.155;-2041.179;-3135.314;;;;;;;
0.498746;45353429;4088;;;;;;;;;;;;;;
0.501246;45355929;319;;;;;;;;;;;;;;
0.503746;45358429;927;;;;;;;;;;;;;;
0.506246;45360929;4087;;;;;;;;;;;;;;
0.509757;45364440;4095;;;;;;;;;;;;;;
0.512257;45366940;4095;;;;;;;;;;;;;;
0.514757;45369440;4095;;;;;;;;;;;;;;
0.517257;45371940;4095;;;;;;;;;;;;;;
0.519757;45374440;4095;;;;;;;;;;;;;;
0.522257;45376940;877;;;;;;;;;;;;;;
0.524757;45379440;1711;;;;;;;;;;;;;;
0.527257;45381940;4095;45382953;561.958;772.913;285.626;-7108.297;-2155.682;-3472.048;45382517;212.667;874.047;-400.316;-4250.1;-7179.805;-691.641
0.529757;45384440;4095;;;;;;;;;;;;;;
0.532257;45386940;4095;;;;;;;;;;;;;;
0.534757;45389440;4095;;;;;;;;;;;;;;
0.537257;45391940;4095;;;;;;;;;;;;;;
0.539757;45394440;4095;;;;;;;;;;;;;;
0.544037;45398720;4095;;;;;;;;;;;;;;
0.546537;45401220;4095;;;;;;;;;;;;;;
0.549037;45403720;4095;;;;;;;;;;;;;;
0.551537;45406220;4095;;;;;;;;;;;;;;
0.554037;45408720;1321;;;;;;;;;;;;;;
0.556537;45411220;2808;;;;;;;;;;;;;;
0.559037;45413720;4095;;;;;;;;;;;;;;
0.561537;45416220;4095;45416288;561.365;771.062;287.266;-7042.507;-2181.773;-3720.196;45415849;212.757;872.874;-396.947;-4220.907;-6876.377;-358.247
0.56354;45418223;1472;;;;;;;;;;;;;;
0.564037;45418720;4095;;;;;;;;;;;;;;
0.56604;45420723;2589;;;;;;;;;;;;;;
0.566537;45421220;4095;;;;;;;;;;;;;;
0.56854;45423223;4095;;;;;;;;;;;;;;
0.569037;45423720;4095;;;;;;;;;;;;;;
0.57104;45425723;4095;;;;;;;;;;;;;;
0.571537;45426220;4095;;;;;;;;;;;;;;
0.574037;45428720;1437;;;;;;;;;;;;;;
0.576537;45431220;2766;;;;;;;;;;;;;;
0.579037;45433720;4095;;;;;;;;;;;;;;
0.586225;45440908;4095;;;;;;;;;;;;;;
0.588725;45443408;4095;;;;;;;;;;;;;;
0.591225;45445908;4095;;;;;;;;;;;;;;
0.593725;45448408;4095;;;;;;;;;;;;;;
0.596225;45450908;4095;;;;;;;;;;;;;;
0.598725;45453408;2189;;;;;;;;;;;;;;
0.601225;45455908;4095;;;;;;;;;;;;;;
0.603725;45458408;4095;45459594;560.417;770.091;289.537;-6995.756;-2268.247;-3821.186;45459156;212.404;872.04;-395.814;-4085.112;-6527.309;73.103
0.606225;45460908;4095;;;;;;;;;;;;;;
0.608725;45463408;4095;;;;;;;;;;;;;;
0.611225;45465908;4095;;;;;;;;;;;;;;
0.613725;45468408;4095;;;;;;;;;;;;;;
0.616225;45470908;4095;;;;;;;;;;;;;;
0.620028;45474711;1181;;;;;;;;;;;;;;
0.622528;45477211;2654;;;;;;;;;;;;;;
0.625028;45479711;4095;;;;;;;;;;;;;;
0.627528;45482211;4095;;;;;;;;;;;;;;
0.630028;45484711;4095;;;;;;;;;;;;;;
0.632528;45487211;4095;;;;;;;;;;;;;;
0.635028;45489711;4095;;;;;;;;;;;;;;
0.637528;45492211;4095;45492846;559.041;768.162;291.616;-6974.093;-2478.585;-3802.064;45492404;212.313;871.022;-394.879;-3837.106;-6344.443;482.448
0.640028;45494711;220;;;;;;;;;;;;;;
0.642528;45497211;920;;;;;;;;;;;;;;
0.645028;45499711;4075;;;;;;;;;;;;;;
0.647528;45502211;4095;;;;;;;;;;;;;;
0.649559;45504242;4095;;;;;;;;;;;;;;
0.652059;45506742;4095;;;;;;;;;;;;;;
0.654559;45509242;4095;;;;;;;;;;;;;;
0.657059;45511742;3738;;;;;;;;;;;;;;
0.659559;45514242;45;;;;;;;;;;;;;;
0.662059;45516742;472;;;;;;;;;;;;;;
0.664559;45519242;3736;;;;;;;;;;;;;;
0.667059;45521742;4095;;;;;;;;;;;;;;
0.669559;45524242;4095;45524351;557.667;765.933;292.822;-6855.076;-2739.218;-3756.773;45523912;211.786;871.623;-393.959;-3479.438;-6259.971;823.201
0.672059;45526742;4095;;;;;;;;;;;;;;
0.674559;45529242;4095;;;;;;;;;;;;;;
0.677059;45531742;3344;;;;;;;;;;;;;;
0.679559;45534242;43;;;;;;;;;;;;;;
0.683021;45537704;619;;;;;;;;;;;;;;
0.685521;45540204;3785;;;;;;;;;;;;;;
0.688021;45542704;4095;;;;;;;;;;;;;;
0.690521;45545204;4095;;;;;;;;;;;;;;
0.693021;45547704;4095;;;;;;;;;;;;;;
0.695521;45550204;4095;;;;;;;;;;;;;;
0.698021;45552704;3655;;;;;;;;;;;;;;
0.700521;45555204;41;;;;;;;;;;;;;;
0.703021;45557704;441;45557250;557.459;765.926;294.931;-6405.572;-2971.07;-3702.372;45556808;212.287;872.889;-392.695;-3024.591;-6142.097;1059.416
0.705521;45560204;3720;;;;;;;;;;;;;;
0.708021;45562704;4095;;;;;;;;;;;;;;
0.710521;45565204;4095;;;;;;;;;;;;;;
0.713021;45567704;4095;;;;;;;;;;;;;;
0.71665;45571333;4095;;;;;;;;;;;;;;
0.71915;45573833;3163;;;;;;;;;;;;;;
0.72165;45576333;39;;;;;;;;;;;;;;
0.72415;45578833;268;;;;;;;;;;;;;;
0.72665;45581333;3584;;;;;;;;;;;;;;
0.72915;45583833;4095;;;;;;;;;;;;;;
0.73165;45586333;4095;;;;;;;;;;;;;;
0.73415;45588833;4095;;;;;;;;45589876;211.902;874.311;-392.142;-2754.362;-6048.492;1280.32
0.73665;45591333;4095;45590315;556.75;766.139;296.099;-6080.918;-3180.391;-3672.566;;;;;;;
0.73915;45593833;3083;;;;;;;;;;;;;;
0.74165;45596333;28;;;;;;;;;;;;;;
0.74415;45598833;9;;;;;;;;;;;;;;
0.74665;45601333;3402;;;;;;;;;;;;;;
0.75383;45608513;4095;;;;;;;;;;;;;;
0.75633;45611013;4095;;;;;;;;;;;;;;
0.75883;45613513;4095;;;;;;;;;;;;;;
0.76133;45616013;2432;;;;;;;;;;;;;;
0.76383;45618513;24;;;;;;;;;;;;;;
0.76633;45621013;9;;;;;;;;;;;;;;
0.76883;45623513;3323;45623042;556.85;766.342;297.74;-5854.31;-3369.622;-3572.5;45622600;212.86;874.418;-390.889;-2632.831;-5967.005;1477.491
0.77133;45626013;4095;;;;;;;;;;;;;;
0.77383;45628513;4095;;;;;;;;;;;;;;
0.77633;45631013;4095;;;;;;;;;;;;;;
0.777808;45632491;4095;;;;;;;;;;;;;;
0.77883;45633513;4095;;;;;;;;;;;;;;
0.78133;45636013;2509;;;;;;;;;;;;;;
0.783301;45637984;25;;;;;;;;;;;;;;
0.785801;45640484;9;;;;;;;;;;;;;;
0.788301;45642984;3325;;;;;;;;;;;;;;
0.790801;45645484;4095;;;;;;;;;;;;;;
0.793301;45647984;4095;;;;;;;;;;;;;;
0.795801;45650484;4095;;;;;;;;;;;;;;
0.798301;45652984;4095;;;;;;;;;;;;;;
0.800801;45655484;1449;45656015;556.031;767.339;298.756;-5585.22;-3559.453;-3480.063;45655576;212.856;874.08;-388.809;-2355.065;-5795.092;1752.304
0.803301;45657984;21;;;;;;;;;;;;;;
0.805801;45660484;10;;;;;;;;;;;;;;
0.808301;45662984;2967;;;;;;;;;;;;;;
0.810801;45665484;4095;;;;;;;;;;;;;;
0.812294;45666977;4095;;;;;;;;;;;;;;
0.814794;45669477;4095;;;;;;;;;;;;;;
0.817294;45671977;4095;;;;;;;;;;;;;;
0.819794;45674477;414;;;;;;;;;;;;;;
0.822294;45676977;19;;;;;;;;;;;;;;
0.824794;45679477;9;;;;;;;;;;;;;;
0.827294;45681977;2392;;;;;;;;;;;;;;
0.829794;45684477;4095;;;;;;;;;;;;;;
0.832294;45686977;4095;45687015;556.015;766.804;299.379;-5195.271;-3668.918;-3436.435;45686573;214.614;871.972;-386.723;-1989.249;-5412.15;2117.939
0.834794;45689477;4095;;;;;;;;;;;;;;
0.837294;45691977;4008;;;;;;;;;;;;;;
0.839794;45694477;39;;;;;;;;;;;;;;
0.842294;45696977;17;;;;;;;;;;;;;;
0.857301;45711984;4095;;;;;;;;;;;;;;
0.859801;45714484;4095;;;;;;;;;;;;;;
0.862301;45716984;1053;;;;;;;;;;;;;;
0.864801;45719484;21;45719554;556.554;765.43;301.124;-4722.445;-3798.722;-3313.175;45719115;216.163;874.551;-386.474;-1357.349;-5043.98;2485.417
0.867301;45721984;18;;;;;;;;;;;;;;
0.869298;45723981;7;;;;;;;;;;;;;;
0.869801;45724484;16;;;;;;;;;;;;;;
0.871798;45726481;506;;;;;;;;;;;;;;
0.872301;45726984;7;;;;;;;;;;;;;;
0.874298;45728981;3624;;;;;;;;;;;;;;
0.874801;45729484;2298;;;;;;;;;;;;;;
0.877301;45731984;4095;;;;;;;;;;;;;;
0.878129;45732812;57;;;;;;;;;;;;;;
0.879801;45734484;4095;;;;;;;;;;;;;;
0.880629;45735312;18;;;;;;;;;;;;;;
0.883129;45737812;9;;;;;;;;;;;;;;
0.885629;45740312;9;;;;;;;;;;;;;;
0.888129;45742812;10;;;;;;;;;;;;;;
0.890629;45745312;1679;;;;;;;;;;;;;;
0.893129;45747812;4095;;;;;;;;;;;;;;
0.895629;45750312;4095;;;;;;;;45751402;217.671;879.538;-387.628;-1026.107;-4973.781;2483.646
0.898129;45752812;41;45751840;557.043;765.241;304.325;-4537.073;-3771.098;-3169.829;;;;;;;
0.900629;45755312;20;;;;;;;;;;;;;;
0.903129;45757812;8;;;;;;;;;;;;;;
0.905629;45760312;16;;;;;;;;;;;;;;
0.908129;45762812;21;;;;;;;;;;;;;;
0.909981;45764664;2029;;;;;;;;;;;;;;
0.912481;45767164;4095;;;;;;;;;;;;;;
0.914981;45769664;4095;;;;;;;;;;;;;;
0.917481;45772164;46;;;;;;;;;;;;;;
0.919981;45774664;19;;;;;;;;;;;;;;
0.922481;45777164;16;;;;;;;;;;;;;;
0.924981;45779664;17;;;;;;;;;;;;;;
0.927481;45782164;7;45783258;556.69;766.049;306.189;-4654.969;-3700.668;-3107.15;45782822;218.365;880.14;-386.797;-882.489;-5084.717;2444.776
0.929981;45784664;1464;;;;;;;;;;;;;;
0.932481;45787164;4095;;;;;;;;;;;;;;
0.934981;45789664;3016;;;;;;;;;;;;;;
0.937481;45792164;38;;;;;;;;;;;;;;
0.939981;45794664;17;;;;;;;;;;;;;;
0.958331;45813014;3517;;;;;;;;;;;;;;
0.960831;45815514;919;45815290;556.738;766.415;307.551;-4861.033;-3744.885;-3044.542;45814852;219.659;880.797;-384.976;-1152.052;-5089.481;2600.787
0.962544;45817227;17;;;;;;;;;;;;;;
0.963331;45818014;20;;;;;;;;;;;;;;
0.965044;45819727;9;;;;;;;;;;;;;;
0.965831;45820514;8;;;;;;;;;;;;;;
0.967544;45822227;10;;;;;;;;;;;;;;
0.968331;45823014;8;;;;;;;;;;;;;;
0.970044;45824727;443;;;;;;;;;;;;;;
0.970252;45824935;1850;;;;;;;;;;;;;;
0.970831;45825514;16;;;;;;;;;;;;;;
0.972752;45827435;24;;;;;;;;;;;;;;
0.973331;45828014;9;;;;;;;;;;;;;;
0.975252;45829935;8;;;;;;;;;;;;;;
0.975831;45830514;16;;;;;;;;;;;;;;
0.977752;45832435;9;;;;;;;;;;;;;;
0.980252;45834935;9;;;;;;;;;;;;;;
0.982752;45837435;17;;;;;;;;;;;;;;
0.985252;45839935;8;;;;;;;;;;;;;;
0.987752;45842435;8;;;;;;;;;;;;;;
0.990252;45844935;734;45844973;557.547;762.065;307.722;-4708.106;-3710.765;-2864.315;45844535;223.017;878.719;-382.551;-1065.137;-4939.132;2526.748
0.992752;45847435;17;;;;;;;;;;;;;;
0.995252;45849935;9;;;;;;;;;;;;;;
0.997752;45852435;9;;;;;;;;;;;;;;
1.000252;45854935;10;;;;;;;;;;;;;;
1.001503;45856186;8;;;;;;;;;;;;;;
1.004003;45858686;8;;;;;;;;;;;;;;
1.006503;45861186;10;;;;;;;;;;;;;;
1.009003;45863686;7;;;;;;;;;;;;;;
1.011503;45866186;16;;;;;;;;;;;;;;
1.014003;45868686;10;;;;;;;;;;;;;;
1.016503;45871186;9;;;;;;;;;;;;;;
1.019003;45873686;17;;;;;;;;;;;;;;
1.021503;45876186;8;45875794;557.242;762.953;310.05;-4144.139;-3575.54;-2699.662;45875352;223.597;880.667;-382.15;-574.38;-4719.3;2514.161
1.024003;45878686;8;;;;;;;;;;;;;;
1.026503;45881186;16;;;;;;;;;;;;;;
1.029003;45883686;17;;;;;;;;;;;;;;
1.031503;45886186;7;;;;;;;;;;;;;;
1.048451;45903134;10;;;;;;;;;;;;;;
1.050951;45905634;8;45906252;557.299;763.156;310.268;-3804.369;-3538.075;-2545.866;45905813;225.044;880.535;-379.574;-221.911;-4578.273;2493.015
1.053451;45908134;18;;;;;;;;;;;;;;
1.055808;45910491;8;;;;;;;;;;;;;;
1.055951;45910634;8;;;;;;;;;;;;;;
1.058308;45912991;9;;;;;;;;;;;;;;
1.058451;45913134;9;;;;;;;;;;;;;;
1.060808;45915491;7;;;;;;;;;;;;;;
1.060951;45915634;8;;;;;;;;;;;;;;
1.063153;45917836;11;;;;;;;;;;;;;;
1.063308;45917991;16;;;;;;;;;;;;;;
1.065653;45920336;8;;;;;;;;;;;;;;
1.065808;45920491;8;;;;;;;;;;;;;;
1.068153;45922836;8;;;;;;;;;;;;;;
1.068308;45922991;8;;;;;;;;;;;;;;
1.070653;45925336;8;;;;;;;;;;;;;;
1.070808;45925491;19;;;;;;;;;;;;;;
1.073153;45927836;8;;;;;;;;;;;;;;
1.075653;45930336;9;;;;;;;;;;;;;;
1.078153;45932836;8;;;;;;;;;;;;;;
1.080653;45935336;8;45936541;557.268;762.202;311.072;-3349.901;-3362.046;-2375.698;45936102;226.626;880.239;-377.559;225.372;-4241.734;2409.927
1.083153;45937836;9;;;;;;;;;;;;;;
1.085653;45940336;8;;;;;;;;;;;;;;
1.088153;45942836;8;;;;;;;;;;;;;;
1.090653;45945336;8;;;;;;;;;;;;;;
1.093153;45947836;8;;;;;;;;;;;;;;
1.093656;45948339;7;;;;;;;;;;;;;;
1.096156;45950839;9;;;;;;;;;;;;;;
1.098656;45953339;9;;;;;;;;;;;;;;
1.101156;45955839;8;;;;;;;;;;;;;;
1.103656;45958339;17;;;;;;;;;;;;;;
1.106156;45960839;7;;;;;;;;;;;;;;
1.108656;45963339;8;;;;;;;;;;;;;;
1.111156;45965839;9;45966484;556.562;761.595;312.049;-2676.218;-3145.381;-2249.038;45966048;227.495;879.678;-376.268;869.916;-3814.835;2278.93
1.113656;45968339;17;;;;;;;;;;;;;;
1.116156;45970839;16;;;;;;;;;;;;;;
1.118656;45973339;9;;;;;;;;;;;;;;
1.121156;45975839;10;;;;;;;;;;;;;;
1.136504;45991187;8;;;;;;;;;;;;;;
1.139004;45993687;10;;;;;;;;45994872;226.411;882.17;-379.243;1362.795;-3642.906;2203.921
1.141504;45996187;8;45995311;556.117;761.799;313.258;-2595.344;-2697.612;-2063.524;;;;;;;
1.144004;45998687;8;;;;;;;;;;;;;;
1.146504;46001187;10;;;;;;;;;;;;;;
1.147684;46002367;8;;;;;;;;;;;;;;
1.149004;46003687;8;;;;;;;;;;;;;;
1.150184;46004867;9;;;;;;;;;;;;;;
1.151504;46006187;8;;;;;;;;;;;;;;
1.152684;46007367;16;;;;;;;;;;;;;;
1.155184;46009867;8;;;;;;;;;;;;;;
1.157684;46012367;9;;;;;;;;;;;;;;
1.159732;46014415;8;;;;;;;;;;;;;;
1.160184;46014867;8;;;;;;;;;;;;;;
1.162684;46017367;10;46018479;554.956;761.943;313.23;-2466.015;-2517.232;-1854.035;46018040;226.143;881.682;-380.387;1590.406;-3690.011;2021.1
1.165184;46019867;8;;;;;;;;;;;;;;
1.167684;46022367;7;;;;;;;;;;;;;;
1.170184;46024867;8;;;;;;;;;;;;;;
1.172684;46027367;9;;;;;;;;;;;;;;
1.174427;46029110;7;;;;;;;;;;;;;;
1.175184;46029867;7;;;;;;;;;;;;;;
1.176927;46031610;17;;;;;;;;;;;;;;
1.179427;46034110;8;;;;;;;;;;;;;;
1.181927;46036610;16;;;;;;;;;;;;;;
1.184427;46039110;8;;;;;;;;;;;;;;
1.186927;46041610;8;;;;;;;;;;;;;;
1.189427;46044110;16;;;;;;;;;;;;;;
1.191927;46046610;16;46047214;554.298;761.038;312.934;-2396.964;-2306.058;-1739.021;46046772;226.804;879.389;-381.15;1990.385;-3675.698;1800.608
1.194427;46049110;8;;;;;;;;;;;;;;
1.196927;46051610;8;;;;;;;;;;;;;;
1.199427;46054110;8;;;;;;;;;;;;;;
1.201927;46056610;16;;;;;;;;;;;;;;
1.21738;46072063;17;;;;;;;;;;;;;;
1.21988;46074563;8;;;;;;;;46075764;226.694;878.291;-381.582;2516.491;-3669.1;1703.14
1.22238;46077063;8;46076203;553.289;761.745;313.336;-2084.616;-2207.38;-1590.82;;;;;;;
1.22488;46079563;18;;;;;;;;;;;;;;
1.22738;46082063;17;;;;;;;;;;;;;;
1.228817;46083500;10;;;;;;;;;;;;;;
1.22988;46084563;8;;;;;;;;;;;;;;
1.231317;46086000;20;;;;;;;;;;;;;;
1.23238;46087063;16;;;;;;;;;;;;;;
1.233817;46088500;9;;;;;;;;;;;;;;
1.236317;46091000;16;;;;;;;;;;;;;;
1.238817;46093500;18;;;;;;;;;;;;;;
1.241317;46096000;8;;;;;;;;;;;;;;
1.244147;46098830;9;;;;;;;;;;;;;;
1.246647;46101330;8;;;;;;;;;;;;;;
1.249147;46103830;8;;;;;;;;;;;;;;
1.251647;46106330;10;46106837;553.02;763.668;313.621;-1911.697;-2170.511;-1441.279;46106398;226.455;878.967;-382.608;2915.229;-3620.395;1736.545
1.254147;46108830;19;;;;;;;;;;;;;;
1.256522;46111205;8;;;;;;;;;;;;;;
1.256647;46111330;10;;;;;;;;;;;;;;
1.259022;46113705;16;;;;;;;;;;;;;;
1.259147;46113830;16;;;;;;;;;;;;;;
1.261522;46116205;8;;;;;;;;;;;;;;
1.261647;46116330;17;;;;;;;;;;;;;;
1.264147;46118830;7;;;;;;;;;;;;;;
1.266647;46121330;9;;;;;;;;;;;;;;
1.279466;46134149;8;;;;;;;;;;;;;;
1.281966;46136649;7;46137302;553.715;764.207;314.319;-2200.675;-2035.735;-1256.34;46136863;227.558;878.432;-383.943;3226.218;-3645.0;1773.531
1.284466;46139149;9;;;;;;;;;;;;;;
1.286863;46141546;9;;;;;;;;;;;;;;
1.286966;46141649;9;;;;;;;;;;;;;;
1.289363;46144046;9;;;;;;;;;;;;;;
1.289466;46144149;17;;;;;;;;;;;;;;
1.291863;46146546;10;;;;;;;;;;;;;;
1.291966;46146649;17;;;;;;;;;;;;;;
1.294363;46149046;17;;;;;;;;;;;;;;
1.296863;46151546;17;;;;;;;;;;;;;;
1.299363;46154046;17;;;;;;;;;;;;;;
1.301863;46156546;16;;;;;;;;;;;;;;
1.31056;46165243;8;;;;;;;;;;;;;;
1.31306;46167743;350;46167854;553.596;764.293;314.81;-2753.454;-1903.761;-1120.898;46167416;227.972;876.93;-386.956;3967.469;-3685.0;1662.104
1.31556;46170243;9;;;;;;;;;;;;;;
1.317997;46172680;9;;;;;;;;;;;;;;
1.31806;46172743;9;;;;;;;;;;;;;;
1.320497;46175180;9;;;;;;;;;;;;;;
1.32056;46175243;9;;;;;;;;;;;;;;
1.322997;46177680;713;;;;;;;;;;;;;;
1.32306;46177743;16;;;;;;;;;;;;;;
1.325497;46180180;3305;;;;;;;;;;;;;;
1.327997;46182680;1344;;;;;;;;;;;;;;
1.330497;46185180;23;;;;;;;;;;;;;;
1.332997;46187680;17;;;;;;;;;;;;;;
1.344244;46198927;;46198927;554.018;763.898;316.406;-2789.906;-1962.573;-1019.79;46198488;229.06;879.694;-388.33;4739.908;-3929.063;1477.061
1.346115;46200798;18;;;;;;;;;;;;;;
1.348615;46203298;8;;;;;;;;;;;;;;
1.350175;46204858;2105;;;;;;;;;;;;;;
1.351115;46205798;9;;;;;;;;;;;;;;
1.352675;46207358;45;;;;;;;;;;;;;;
1.353615;46208298;4072;;;;;;;;;;;;;;
1.355175;46209858;10;;;;;;;;;;;;;;
1.357675;46212358;8;;;;;;;;;;;;;;
1.357874;46212557;4095;;;;;;;;;;;;;;
1.360175;46214858;3086;;;;;;;;;;;;;;
1.360374;46215057;4095;;;;;;;;;;;;;;
1.362675;46217358;4095;;;;;;;;;;;;;;
1.370422;46225105;4095;;;;;;;;;;;;;;
1.372922;46227605;4095;;;;;;;;;;;;;;
1.375422;46230105;4095;46229312;554.89;763.676;317.861;-2732.223;-1772.132;-878.238;46228873;230.697;883.472;-388.22;5001.225;-4083.485;1050.146
1.377922;46232605;1208;;;;;;;;;;;;;;
1.380422;46235105;22;;;;;;;;;;;;;;
1.382922;46237605;253;;;;;;;;;;;;;;
1.385422;46240105;4095;;;;;;;;;;;;;;
1.394913;46249596;4095;;;;;;;;;;;;;;
1.397413;46252096;4095;46252397;556.163;765.66;320.292;-2751.362;-1481.838;-726.264;46251962;232.052;884.53;-389.11;4636.976;-4007.061;690.951
1.399913;46254596;4095;;;;;;;;;;;;;;
1.402413;46257096;4095;;;;;;;;;;;;;;
1.403582;46258265;4009;;;;;;;;;;;;;;
1.404913;46259596;3149;;;;;;;;;;;;;;
1.406082;46260765;4095;;;;;;;;;;;;;;
1.407413;46262096;539;;;;;;;;;;;;;;
1.408582;46263265;4095;;;;;;;;;;;;;;
1.411082;46265765;4095;;;;;;;;;;;;;;
1.413582;46268265;4095;;;;;;;;;;;;;;
1.416082;46270765;4095;;;;;;;;;;;;;;
1.418582;46273265;4095;;;;;;;;;;;;;;
1.428466;46283149;4095;;;;;;;;;;;;;;
1.430966;46285649;4095;46285465;557.116;766.735;323.389;-3210.107;-1162.746;-558.701;46285027;232.381;885.492;-391.596;4052.065;-3995.27;473.966
1.433466;46288149;4095;;;;;;;;;;;;;;
1.435966;46290649;4095;;;;;;;;;;;;;;
1.437237;46291920;4095;;;;;;;;;;;;;;
1.438466;46293149;4095;;;;;;;;;;;;;;
1.439737;46294420;4095;;;;;;;;;;;;;;
1.440966;46295649;4095;;;;;;;;;;;;;;
1.442237;46296920;4095;;;;;;;;;;;;;;
1.444737;46299420;4095;;;;;;;;;;;;;;
1.447237;46301920;4095;;;;;;;;;;;;;;
1.449737;46304420;4095;;;;;;;;;;;;;;
1.457888;46312571;4095;;;;;;;;;;;;;;
1.460388;46315071;4095;;;;;;;;;;;;;;
1.462888;46317571;4095;46316977;556.784;766.81;324.69;-3612.226;-847.358;-539.516;46316538;231.01;888.419;-392.842;3657.837;-3950.382;249.018
1.465388;46320071;4095;;;;;;;;;;;;;;
1.466678;46321361;4095;;;;;;;;;;;;;;
1.467888;46322571;4095;;;;;;;;;;;;;;
1.469178;46323861;4095;;;;;;;;;;;;;;
1.470388;46325071;4095;;;;;;;;;;;;;;
1.471678;46326361;4095;;;;;;;;;;;;;;
1.472888;46327571;4095;;;;;;;;;;;;;;
1.474178;46328861;4095;;;;;;;;;;;;;;
1.476678;46331361;4095;;;;;;;;;;;;;;
1.479178;46333861;4095;;;;;;;;;;;;;;
1.481678;46336361;4095;;;;;;;;;;;;;;
1.484178;46338861;4095;;;;;;;;46339716;230.653;891.292;-394.312;3264.507;-3885.863;-151.933
1.486678;46341361;4095;46340158;557.133;767.064;326.426;-3805.677;-455.428;-597.852;;;;;;;
1.489178;46343861;4095;;;;;;;;;;;;;;
1.491678;46346361;4095;;;;;;;;;;;;;;
1.494178;46348861;4095;;;;;;;;;;;;;;
1.496678;46351361;4095;;;;;;;;;;;;;;
1.500253;46354936;4095;;;;;;;;;;;;;;
1.502753;46357436;4095;;;;;;;;;;;;;;
1.505253;46359936;4095;;;;;;;;;;;;;;
1.507753;46362436;4095;;;;;;;;;;;;;;
1.510253;46364936;4095;;;;;;;;;;;;;;
1.512753;46367436;4095;;;;;;;;;;;;;;
1.515253;46369936;4095;;;;;;;;;;;;;;
1.517753;46372436;4095;46373307;559.459;767.458;331.29;-4311.019;123.844;-610.397;46372869;230.112;888.951;-394.433;3113.094;-3799.194;-825.962
1.520253;46374936;4095;;;;;;;;;;;;;;
1.522753;46377436;4095;;;;;;;;;;;;;;
1.525253;46379936;4095;;;;;;;;;;;;;;
1.527753;46382436;4095;;;;;;;;;;;;;;
1.54172;46396403;4095;;;;;;;;;;;;;;
1.54279;46397473;4095;;;;;;;;;;;;;;
1.54422;46398903;4095;;;;;;;;;;;;;;
1.54529;46399973;4095;;;;;;;;;;;;;;
1.54672;46401403;4095;;;;;;;;;;;;;;
1.54779;46402473;4095;;;;;;;;;;;;;;
1.54922;46403903;4095;;;;;;;;46404296;228.58;892.45;-397.172;3120.19;-3756.672;-1472.851
1.55029;46404973;4095;46404738;559.174;768.729;334.502;-3999.218;600.651;-691.44;;;;;;;
1.55172;46406403;4095;;;;;;;;;;;;;;
1.55279;46407473;4095;;;;;;;;;;;;;;
1.55422;46408903;4095;;;;;;;;;;;;;;
1.55529;46409973;4095;;;;;;;;;;;;;;
1.55672;46411403;4095;;;;;;;;;;;;;;
1.55779;46412473;4095;;;;;;;;;;;;;;
1.55922;46413903;4095;;;;;;;;;;;;;;
1.56029;46414973;4095;;;;;;;;;;;;;;
1.56279;46417473;4095;;;;;;;;;;;;;;
1.56529;46419973;4095;;;;;;;;;;;;;;
1.56779;46422473;4095;;;;;;;;;;;;;;
1.57029;46424973;4095;;;;;;;;;;;;;;
1.57279;46427473;4095;;;;;;;;;;;;;;
1.57529;46429973;4095;46429642;562.215;772.266;340.414;-4321.632;1270.181;-732.555;46429204;225.954;895.663;-398.682;2935.305;-3850.151;-2310.521
1.57779;46432473;4095;;;;;;;;;;;;;;
1.58029;46434973;4095;;;;;;;;;;;;;;
1.58279;46437473;4095;;;;;;;;;;;;;;
1.58529;46439973;4095;;;;;;;;;;;;;;
1.597344;46452027;4095;;;;;;;;;;;;;;
1.599844;46454527;4095;;;;;;;;;;;;;;
1.602344;46457027;4095;;;;;;;;;;;;;;
1.604844;46459527;4095;;;;;;;;;;;;;;
1.607344;46462027;4095;;;;;;;;;;;;;;
1.609844;46464527;4095;;;;;;;;;;;;;;
1.612344;46467027;4095;;;;;;;;;;;;;;
1.614844;46469527;4095;;;;;;;;46470693;223.989;898.735;-400.592;2330.04;-4030.393;-3276.057
1.617344;46472027;4095;46471136;561.426;771.943;342.73;-4408.738;1974.485;-1040.24;;;;;;;
1.619844;46474527;4095;;;;;;;;;;;;;;
1.622344;46477027;4095;;;;;;;;;;;;;;
1.624844;46479527;4095;;;;;;;;;;;;;;
1.627344;46482027;4095;;;;;;;;;;;;;;
1.63915;46493833;4095;;;;;;;;;;;;;;
1.64165;46496333;4095;;;;;;;;;;;;;;
1.64415;46498833;4095;;;;;;;;;;;;;;
1.64665;46501333;4095;;;;;;;;;;;;;;
1.648396;46503079;4095;;;;;;;;;;;;;;
1.64915;46503833;4095;46504458;560.024;771.599;344.693;-4461.301;2738.51;-1403.416;46504020;221.336;899.633;-402.784;1616.788;-4246.686;-4373.567
1.650896;46505579;4095;;;;;;;;;;;;;;
1.65165;46506333;4095;;;;;;;;;;;;;;
1.653396;46508079;4095;;;;;;;;;;;;;;
1.65415;46508833;4095;;;;;;;;;;;;;;
1.655896;46510579;4095;;;;;;;;;;;;;;
1.65665;46511333;4095;;;;;;;;;;;;;;
1.658396;46513079;4095;;;;;;;;;;;;;;
1.65915;46513833;4095;;;;;;;;;;;;;;
1.660896;46515579;4095;;;;;;;;;;;;;;
1.663396;46518079;4095;;;;;;;;;;;;;;
1.665896;46520579;4095;;;;;;;;;;;;;;
1.668396;46523079;4095;;;;;;;;;;;;;;
1.670896;46525579;4095;;;;;;;;;;;;;;
1.673396;46528079;4095;;;;;;;;;;;;;;
1.675896;46530579;4095;46531201;559.455;772.303;344.038;-4808.736;3540.897;-1789.12;46530759;217.43;893.631;-402.928;1393.761;-4480.164;-5550.951
1.678396;46533079;4095;;;;;;;;;;;;;;
1.680896;46535579;4095;;;;;;;;;;;;;;
1.683396;46538079;4095;;;;;;;;;;;;;;
1.685896;46540579;4095;;;;;;;;;;;;;;
1.694658;46549341;4095;;;;;;;;;;;;;;
1.697158;46551841;4095;;;;;;;;;;;;;;
1.699658;46554341;4095;;;;;;;;;;;;;;
1.702158;46556841;4095;;;;;;;;;;;;;;
1.704658;46559341;4095;;;;;;;;;;;;;;
1.707158;46561841;4095;;;;;;;;;;;;;;
1.709658;46564341;4095;;;;;;;;;;;;;;
1.712158;46566841;4095;;;;;;;;;;;;;;
1.714658;46569341;4095;46569479;558.072;771.501;348.607;-5295.861;4181.103;-2086.414;46569041;212.701;897.359;-405.729;2162.323;-4814.406;-6882.091
1.717158;46571841;4095;;;;;;;;;;;;;;
1.719658;46574341;4095;;;;;;;;;;;;;;
1.722158;46576841;4095;;;;;;;;;;;;;;
1.724658;46579341;4095;;;;;;;;;;;;;;
1.732492;46587175;4095;;;;;;;;;;;;;;
1.734992;46589675;4095;;;;;;;;;;;;;;
1.737492;46592175;4095;;;;;;;;;;;;;;
1.739992;46594675;4095;;;;;;;;;;;;;;
1.742492;46597175;4095;;;;;;;;;;;;;;
1.744992;46599675;4095;;;;;;;;;;;;;;
1.747492;46602175;4095;46602807;555.288;769.044;350.227;-5833.881;4862.797;-2521.968;46602365;208.947;896.868;-406.842;2542.019;-5231.248;-7900.361
1.749992;46604675;4095;;;;;;;;;;;;;;
1.752492;46607175;4095;;;;;;;;;;;;;;
1.754013;46608696;4095;;;;;;;;;;;;;;
1.754992;46609675;4095;;;;;;;;;;;;;;
1.756513;46611196;4095;;;;;;;;;;;;;;
1.757492;46612175;4095;;;;;;;;;;;;;;
1.759013;46613696;4095;;;;;;;;;;;;;;
1.761513;46616196;4095;;;;;;;;;;;;;;
1.764013;46618696;4095;;;;;;;;;;;;;;
1.766513;46621196;4095;;;;;;;;;;;;;;
1.769013;46623696;4095;;;;;;;;;;;;;;
1.771513;46626196;4095;;;;;;;;;;;;;;
1.774013;46628696;4095;;;;;;;;;;;;;;
1.776513;46631196;4095;;;;;;;;46632395;203.764;898.354;-407.288;2224.605;-5616.748;-8638.906
1.779013;46633696;4095;46632834;552.278;768.662;353.181;-6040.937;5413.72;-2924.369;;;;;;;
1.781513;46636196;4095;;;;;;;;;;;;;;
1.784013;46638696;4095;;;;;;;;;;;;;;
1.786513;46641196;4095;;;;;;;;;;;;;;
1.789013;46643696;4095;;;;;;;;;;;;;;
1.796061;46650744;4095;;;;;;;;;;;;;;
1.798561;46653244;4095;;;;;;;;;;;;;;
1.801061;46655744;4095;;;;;;;;;;;;;;
1.803561;46658244;4095;;;;;;;;;;;;;;
1.806061;46660744;4095;;;;;;;;;;;;;;
1.808561;46663244;4095;;;;;;;;;;;;;;
1.811061;46665744;4095;;;;;;;;;;;;;;
1.813561;46668244;4095;46669465;548.905;767.872;356.439;-6520.265;5924.409;-3323.713;46669023;198.627;895.948;-406.841;748.813;-5867.473;-9116.523
1.816061;46670744;4095;;;;;;;;;;;;;;
1.818561;46673244;4095;;;;;;;;;;;;;;
1.821061;46675744;4095;;;;;;;;;;;;;;
1.823561;46678244;4095;;;;;;;;;;;;;;
1.826061;46680744;4095;;;;;;;;;;;;;;
1.829909;46684592;4095;;;;;;;;;;;;;;
1.832409;46687092;4095;;;;;;;;;;;;;;
1.834909;46689592;4095;;;;;;;;;;;;;;
1.837409;46692092;4095;;;;;;;;;;;;;;
1.839909;46694592;4095;;;;;;;;;;;;;;
1.842409;46697092;4095;;;;;;;;;;;;;;
1.843678;46698361;3247;;;;;;;;;;;;;;
1.844909;46699592;4029;;;;;;;;;;;;;;
1.846178;46700861;3159;;;;;;;;;;;;;;
1.847409;46702092;3800;46702702;545.329;766.292;358.338;-6796.251;6287.063;-3636.59;46702263;193.777;890.495;-405.72;-425.69;-5905.287;-9352.822
1.848678;46703361;3000;;;;;;;;;;;;;;
1.849909;46704592;3580;;;;;;;;;;;;;;
1.851178;46705861;2799;;;;;;;;;;;;;;
1.852409;46707092;3422;;;;;;;;;;;;;;
1.853678;46708361;2604;;;;;;;;;;;;;;
1.854909;46709592;3336;;;;;;;;;;;;;;
1.856178;46710861;2455;;;;;;;;;;;;;;
1.857409;46712092;3291;;;;;;;;;;;;;;
1.858678;46713361;2352;;;;;;;;;;;;;;
1.861178;46715861;2298;;;;;;;;;;;;;;
1.863678;46718361;2239;;;;;;;;;;;;;;
1.866178;46720861;2139;;;;;;;;;;;;;;
1.868678;46723361;1966;;;;;;;;;;;;;;
1.871178;46725861;1751;;;;;;;;;;;;;;
1.873678;46728361;1534;;;;;;;;;;;;;;
1.876178;46730861;1373;;;;;;;;;;;;;;
1.878678;46733361;1274;46734392;540.907;765.889;361.539;-6877.751;6492.46;-3861.635;46733950;188.071;885.09;-404.234;-1176.593;-5781.522;-9274.118
1.881178;46735861;1211;;;;;;;;;;;;;;
1.883678;46738361;1163;;;;;;;;;;;;;;
1.886178;46740861;1065;;;;;;;;;;;;;;
1.888678;46743361;905;;;;;;;;;;;;;;
1.891178;46745861;702;;;;;;;;;;;;;;
1.906436;46761119;520;;;;;;;;;;;;;;
1.908936;46763619;364;;;;;;;;;;;;;;
1.911436;46766119;272;;;;;;;;;;;;;;
1.913936;46768619;222;;;;;;;;;;;;;;
1.916436;46771119;173;;;;;;;;;;;;;;
1.918936;46773619;77;;;;;;;;;;;;;;
1.921436;46776119;17;;;;;;;;;;;;;;
1.923936;46778619;16;46779168;536.664;763.621;364.087;-6959.551;6497.712;-3920.554;46778730;183.255;880.979;-401.968;-1476.514;-5566.821;-8887.412
1.926436;46781119;16;;;;;;;;;;;;;;
1.928936;46783619;16;;;;;;;;;;;;;;
1.931436;46786119;8;;;;;;;;;;;;;;
1.933936;46788619;8;;;;;;;;;;;;;;
1.945674;46800357;10;;;;;;;;;;;;;;
1.946391;46801074;7;;;;;;;;;;;;;;
1.948174;46802857;16;;;;;;;;;;;;;;
1.948891;46803574;8;;;;;;;;;;;;;;
1.950674;46805357;9;;;;;;;;;;;;;;
1.951391;46806074;8;;;;;;;;;;;;;;
1.953174;46807857;18;;;;;;;;;;;;;;
1.953891;46808574;8;46809121;532.034;759.777;365.506;-6944.949;6497.889;-3878.526;46808679;178.13;880.021;-400.902;-1746.125;-5302.48;-8497.291
1.955674;46810357;8;;;;;;;;;;;;;;
1.956391;46811074;8;;;;;;;;;;;;;;
1.958174;46812857;9;;;;;;;;;;;;;;
1.958891;46813574;9;;;;;;;;;;;;;;
1.960674;46815357;17;;;;;;;;;;;;;;
1.961391;46816074;17;;;;;;;;;;;;;;
1.963174;46817857;8;;;;;;;;;;;;;;
1.963891;46818574;18;;;;;;;;;;;;;;
1.965674;46820357;16;;;;;;;;;;;;;;
1.968174;46822857;9;;;;;;;;;;;;;;
1.970674;46825357;8;;;;;;;;;;;;;;
1.973174;46827857;10;;;;;;;;;;;;;;
1.975674;46830357;8;;;;;;;;;;;;;;
1.978174;46832857;10;46832377;528.009;757.229;368.611;-6773.576;6446.432;-3776.037;46831939;173.244;879.379;-399.504;-1955.007;-5088.106;-8243.051
1.980674;46835357;9;;;;;;;;;;;;;;
1.983174;46837857;9;;;;;;;;;;;;;;
1.985674;46840357;8;;;;;;;;;;;;;;
1.988174;46842857;10;;;;;;;;;;;;;;
1.996313;46850996;17;;;;;;;;;;;;;;
1.998813;46853496;16;;;;;;;;;;;;;;
2.001313;46855996;17;;;;;;;;;;;;;;
2.003813;46858496;18;;;;;;;;;;;;;;
2.006313;46860996;9;;;;;;;;;;;;;;
2.008813;46863496;10;;;;;;;;;;;;;;
2.011313;46865996;8;;;;;;;;;;;;;;
2.013813;46868496;9;;;;;;;;46869610;167.625;878.219;-399.287;-2201.569;-4911.138;-7943.335
2.016313;46870996;10;46870058;523.971;756.822;373.184;-6741.585;6316.172;-3634.485;;;;;;;
2.018813;46873496;8;;;;;;;;;;;;;;
2.021313;46875996;9;;;;;;;;;;;;;;
2.023813;46878496;9;;;;;;;;;;;;;;
2.026313;46880996;8;;;;;;;;;;;;;;
2.035368;46890051;17;;;;;;;;;;;;;;
2.037868;46892551;10;;;;;;;;;;;;;;
2.040368;46895051;16;;;;;;;;;;;;;;
2.042793;46897476;16;;;;;;;;;;;;;;
2.042868;46897551;9;;;;;;;;;;;;;;
2.045293;46899976;8;;;;;;;;;;;;;;
2.045368;46900051;9;46900596;519.873;755.495;377.302;-6786.006;6074.301;-3470.261;46900157;162.3;877.594;-398.916;-2242.865;-4963.956;-7564.981
2.047793;46902476;8;;;;;;;;;;;;;;
2.047868;46902551;17;;;;;;;;;;;;;;
2.050293;46904976;16;;;;;;;;;;;;;;
2.050368;46905051;8;;;;;;;;;;;;;;
2.052793;46907476;9;;;;;;;;;;;;;;
2.052868;46907551;16;;;;;;;;;;;;;;
2.055293;46909976;16;;;;;;;;;;;;;;
2.055368;46910051;8;;;;;;;;;;;;;;
2.057793;46912476;20;;;;;;;;;;;;;;
2.060293;46914976;8;;;;;;;;;;;;;;
2.062793;46917476;17;;;;;;;;;;;;;;
2.065293;46919976;8;;;;;;;;;;;;;;
2.067793;46922476;8;;;;;;;;;;;;;;
2.070293;46924976;8;46925516;516.229;754.845;381.452;-6808.081;5749.148;-3297.185;46925073;156.906;878.69;-399.448;-2147.347;-5143.633;-7167.919
2.072793;46927476;17;;;;;;;;;;;;;;
2.075293;46929976;9;;;;;;;;;;;;;;
2.077793;46932476;8;;;;;;;;;;;;;;
2.080293;46934976;17;;;;;;;;;;;;;;
2.085663;46940346;16;;;;;;;;;;;;;;
2.088163;46942846;17;;;;;;;;;;;;;;
2.090663;46945346;8;;;;;;;;;;;;;;
2.093163;46947846;7;;;;;;;;;;;;;;
2.095663;46950346;9;;;;;;;;;;;;;;
2.098163;46952846;20;;;;;;;;;;;;;;
2.100663;46955346;8;;;;;;;;;;;;;;
2.103163;46957846;18;;;;;;;;;;;;;;
2.105663;46960346;9;46960316;513.22;754.856;386.969;-6962.489;5348.378;-3143.701;46959877;151.58;881.908;-399.587;-2207.98;-5617.514;-6818.711
2.108163;46962846;16;;;;;;;;;;;;;;
2.110663;46965346;17;;;;;;;;;;;;;;
2.113163;46967846;6;;;;;;;;;;;;;;
2.115663;46970346;16;;;;;;;;;;;;;;
2.120724;46975407;10;;;;;;;;;;;;;;
2.123224;46977907;17;;;;;;;;;;;;;;
2.125724;46980407;9;;;;;;;;;;;;;;
2.128224;46982907;9;;;;;;;;;;;;;;
2.130724;46985407;16;;;;;;;;;;;;;;
2.133224;46987907;17;;;;;;;;;;;;;;
2.135724;46990407;8;46990961;509.866;756.11;392.642;-7382.177;4897.647;-3090.203;46990518;145.66;886.265;-399.073;-2503.143;-6303.513;-6512.775
2.138224;46992907;9;;;;;;;;;;;;;;
2.140724;46995407;10;;;;;;;;;;;;;;
2.143224;46997907;9;;;;;;;;;;;;;;
2.145724;47000407;19;;;;;;;;;;;;;;
2.155986;47010669;9;;;;;;;;;;;;;;
2.158486;47013169;7;;;;;;;;;;;;;;
2.160986;47015669;8;;;;;;;;;;;;;;
2.163486;47018169;9;47018730;502.777;759.144;398.905;-9004.568;4651.015;-3255.068;47018292;138.133;887.305;-399.444;-2983.049;-7148.587;-6229.574
2.165986;47020669;9;;;;;;;;;;;;;;
2.167268;47021951;9;;;;;;;;;;;;;;
2.168486;47023169;10;;;;;;;;;;;;;;
2.169768;47024451;17;;;;;;;;;;;;;;
2.170986;47025669;16;;;;;;;;;;;;;;
2.172268;47026951;16;;;;;;;;;;;;;;
2.173486;47028169;9;;;;;;;;;;;;;;
2.174768;47029451;8;;;;;;;;;;;;;;
2.177268;47031951;17;;;;;;;;;;;;;;
2.179768;47034451;8;;;;;;;;;;;;;;
2.182268;47036951;10;;;;;;;;;;;;;;
2.184768;47039451;16;;;;;;;;;;;;;;
2.187268;47041951;18;47041997;499.421;759.837;403.359;-9828.777;4163.839;-3395.502;47041555;131.678;890.971;-398.565;-3854.584;-8083.97;-5677.908
2.189768;47044451;16;;;;;;;;;;;;;;
2.192268;47046951;9;;;;;;;;;;;;;;
2.194768;47049451;16;;;;;;;;;;;;;;
2.197268;47051951;10;;;;;;;;;;;;;;
2.198679;47053362;16;;;;;;;;;;;;;;
2.201179;47055862;9;;;;;;;;;;;;;;
2.203679;47058362;17;;;;;;;;;;;;;;
2.206179;47060862;7;;;;;;;;;;;;;;
2.208679;47063362;8;;;;;;;;;;;;;;
2.211179;47065862;9;;;;;;;;;;;;;;
2.213679;47068362;9;;;;;;;;;;;;;;
2.216179;47070862;9;;;;;;;;;;;;;;
2.218679;47073362;18;47072804;497.051;760.366;408.433;-10686.15;3619.209;-3537.664;47072365;126.686;893.442;-397.022;-4903.042;-9055.271;-5075.075
2.221179;47075862;16;;;;;;;;;;;;;;
2.223679;47078362;16;;;;;;;;;;;;;;
2.226179;47080862;17;;;;;;;;;;;;;;
2.228679;47083362;16;;;;;;;;;;;;;;
2.245986;47100669;16;;;;;;;;;;;;;;
2.248486;47103169;9;47103535;494.622;761.339;414.833;-11721.593;3079.937;-3744.469;47103093;121.95;896.197;-393.989;-6087.64;-10127.633;-4340.508
2.250986;47105669;18;;;;;;;;;;;;;;
2.253486;47108169;9;;;;;;;;;;;;;;
2.253514;47108197;18;;;;;;;;;;;;;;
2.255986;47110669;19;;;;;;;;;;;;;;
2.256014;47110697;9;;;;;;;;;;;;;;
2.258486;47113169;17;;;;;;;;;;;;;;
2.258514;47113197;9;;;;;;;;;;;;;;
2.261014;47115697;9;;;;;;;;;;;;;;
2.2612;47115883;16;;;;;;;;;;;;;;
2.263514;47118197;9;;;;;;;;;;;;;;
2.2637;47118383;9;;;;;;;;;;;;;;
2.266014;47120697;17;;;;;;;;;;;;;;
2.2662;47120883;17;;;;;;;;;;;;;;
2.268514;47123197;9;;;;;;;;;;;;;;
2.2687;47123383;18;;;;;;;;;;;;;;
2.2712;47125883;8;;;;;;;;;;;;;;
2.2737;47128383;9;;;;;;;;;;;;;;
2.2762;47130883;10;;;;;;;;;;;;;;
2.2787;47133383;16;47134250;492.4;761.428;421.109;-13102.513;2567.19;-3999.995;47133811;117.591;898.29;-390.833;-7463.695;-11235.188;-3502.233
2.2812;47135883;8;;;;;;;;;;;;;;
2.2837;47138383;8;;;;;;;;;;;;;;
2.2862;47140883;7;;;;;;;;;;;;;;
2.2887;47143383;9;;;;;;;;;;;;;;
2.2912;47145883;8;;;;;;;;;;;;;;
2.308344;47163027;16;;;;;;;;;;;;;;
2.310844;47165527;16;47164897;489.611;759.767;425.972;-14421.824;2034.143;-4241.433;47164455;113.578;898.875;-386.901;-8841.822;-12293.054;-2544.434
2.313344;47168027;8;;;;;;;;;;;;;;
2.315703;47170386;8;;;;;;;;;;;;;;
2.315844;47170527;8;;;;;;;;;;;;;;
2.318203;47172886;17;;;;;;;;;;;;;;
2.318344;47173027;8;;;;;;;;;;;;;;
2.320703;47175386;8;;;;;;;;;;;;;;
2.320844;47175527;8;;;;;;;;;;;;;;
2.323203;47177886;8;;;;;;;;;;;;;;
2.325703;47180386;8;;;;;;;;;;;;;;
2.328203;47182886;9;;;;;;;;;;;;;;
2.335507;47190190;17;;;;;;;;;;;;;;
2.338007;47192690;8;;;;;;;;47193530;111.022;899.523;-382.598;-10045.606;-13304.588;-1619.65
2.340507;47195190;10;47193969;487.969;757.665;430.842;-15602.107;1451.185;-4382.861;;;;;;;
2.343007;47197690;7;;;;;;;;;;;;;;
2.345507;47200190;9;;;;;;;;;;;;;;
2.347139;47201822;17;;;;;;;;;;;;;;
2.348007;47202690;16;;;;;;;;;;;;;;
2.349639;47204322;8;;;;;;;;;;;;;;
2.350507;47205190;10;;;;;;;;;;;;;;
2.352139;47206822;16;;;;;;;;;;;;;;
2.354639;47209322;8;;;;;;;;;;;;;;
2.357139;47211822;7;;;;;;;;;;;;;;
2.358922;47213605;10;;;;;;;;;;;;;;
2.359639;47214322;8;;;;;;;;;;;;;;
2.362139;47216822;7;47217752;485.909;755.375;436.006;-16645.064;867.189;-4537.78;47217314;107.759;900.144;-378.249;-11065.826;-14170.171;-704.355
2.364639;47219322;16;;;;;;;;;;;;;;
2.367139;47221822;8;;;;;;;;;;;;;;
2.369639;47224322;17;;;;;;;;;;;;;;
2.372139;47226822;17;;;;;;;;;;;;;;
2.37431;47228993;17;;;;;;;;;;;;;;
2.374639;47229322;10;;;;;;;;;;;;;;
2.37681;47231493;10;;;;;;;;;;;;;;
2.37931;47233993;9;;;;;;;;;;;;;;
2.38181;47236493;16;;;;;;;;;;;;;;
2.38431;47238993;17;;;;;;;;;;;;;;
2.38681;47241493;16;;;;;;;;;;;;;;
2.38931;47243993;8;;;;;;;;;;;;;;
2.39181;47246493;9;47247000;483.58;752.09;441.058;-17563.248;210.017;-4705.954;47246564;105.158;900.692;-372.311;-11623.348;-15056.787;201.926
2.39431;47248993;8;;;;;;;;;;;;;;
2.39681;47251493;17;;;;;;;;;;;;;;
2.39931;47253993;16;;;;;;;;;;;;;;
2.40181;47256493;8;;;;;;;;;;;;;;
2.417649;47272332;18;;;;;;;;;;;;;;
2.420149;47274832;8;;;;;;;;47275820;104.164;903.5;-365.999;-12016.055;-15856.635;932.954
2.422649;47277332;8;47276258;482.678;748.389;447.12;-18291.148;-377.109;-4892.406;;;;;;;
2.425149;47279832;16;;;;;;;;;;;;;;
2.427649;47282332;16;;;;;;;;;;;;;;
2.429041;47283724;9;;;;;;;;;;;;;;
2.430149;47284832;7;;;;;;;;;;;;;;
2.431541;47286224;8;;;;;;;;;;;;;;
2.432649;47287332;18;;;;;;;;;;;;;;
2.434041;47288724;8;;;;;;;;;;;;;;
2.436541;47291224;7;;;;;;;;;;;;;;
2.439041;47293724;9;;;;;;;;;;;;;;
2.441541;47296224;17;;;;;;;;;;;;;;
2.444378;47299061;9;;;;;;;;;;;;;;
2.446878;47301561;16;;;;;;;;;;;;;;
2.449378;47304061;17;;;;;;;;;;;;;;
2.451878;47306561;8;47306805;481.114;744.995;454.081;-19085.902;-836.441;-5099.286;47306366;102.671;906.441;-359.186;-12606.564;-16614.74;1612.557
2.454378;47309061;17;;;;;;;;;;;;;;
2.456751;47311434;16;;;;;;;;;;;;;;
2.456878;47311561;9;;;;;;;;;;;;;;
2.459251;47313934;9;;;;;;;;;;;;;;
2.459378;47314061;17;;;;;;;;;;;;;;
2.461751;47316434;8;;;;;;;;;;;;;;
2.461878;47316561;18;;;;;;;;;;;;;;
2.464378;47319061;17;;;;;;;;;;;;;;
2.466878;47321561;10;;;;;;;;;;;;;;
2.480262;47334945;8;;;;;;;;;;;;;;
2.482762;47337445;9;47337703;479.385;738.423;459.089;-19970.42;-1135.869;-5263.009;47337265;102.661;908.864;-351.493;-13328.549;-17460.941;2198.679
2.485262;47339945;17;;;;;;;;;;;;;;
2.487607;47342290;18;;;;;;;;;;;;;;
2.487762;47342445;9;;;;;;;;;;;;;;
2.490107;47344790;7;;;;;;;;;;;;;;
2.490262;47344945;8;;;;;;;;;;;;;;
2.492607;47347290;9;;;;;;;;;;;;;;
2.492762;47347445;16;;;;;;;;;;;;;;
2.495107;47349790;8;;;;;;;;;;;;;;
2.497607;47352290;16;;;;;;;;;;;;;;
2.500107;47354790;8;;;;;;;;;;;;;;
2.502607;47357290;18;;;;;;;;;;;;;;
2.51145;47366133;17;;;;;;;;;;;;;;
2.51395;47368633;8;47368429;477.436;731.141;464.201;-20393.336;-1490.763;-5318.358;47367990;102.353;908.079;-344.989;-13789.559;-18092.457;2388.432
2.51645;47371133;10;;;;;;;;;;;;;;
2.518922;47373605;18;;;;;;;;;;;;;;
2.51895;47373633;9;;;;;;;;;;;;;;
2.521422;47376105;16;;;;;;;;;;;;;;
2.52145;47376133;9;;;;;;;;;;;;;;
2.523922;47378605;17;;;;;;;;;;;;;;
2.52395;47378633;18;;;;;;;;;;;;;;
2.526422;47381105;8;;;;;;;;;;;;;;
2.528922;47383605;19;;;;;;;;;;;;;;
2.531422;47386105;9;;;;;;;;;;;;;;
2.533922;47388605;8;;;;;;;;;;;;;;
2.544643;47399326;;47399326;475.537;725.469;470.502;-20361.543;-1964.85;-5259.378;47398888;101.713;906.083;-337.61;-13625.518;-18681.459;2533.26
2.546854;47401537;9;;;;;;;;;;;;;;
2.549354;47404037;9;;;;;;;;;;;;;;
2.550233;47404916;7;;;;;;;;;;;;;;
2.551854;47406537;8;;;;;;;;;;;;;;
2.552733;47407416;8;;;;;;;;;;;;;;
2.554354;47409037;8;;;;;;;;;;;;;;
2.555233;47409916;17;;;;;;;;;;;;;;
2.557733;47412416;10;;;;;;;;;;;;;;
2.558268;47412951;11;;;;;;;;;;;;;;
2.560233;47414916;17;;;;;;;;;;;;;;
2.560768;47415451;25;;;;;;;;;;;;;;
2.562733;47417416;8;;;;;;;;;;;;;;
2.570218;47424901;9;;;;;;;;;;;;;;
2.572718;47427401;9;;;;;;;;47428229;101.227;910.737;-327.513;-13104.366;-19388.449;2714.16
2.575218;47429901;7;47428667;473.329;719.073;476.623;-20393.027;-2516.732;-5226.097;;;;;;;
2.577718;47432401;16;;;;;;;;;;;;;;
2.580218;47434901;8;;;;;;;;;;;;;;
2.581547;47436230;9;;;;;;;;;;;;;;
2.582718;47437401;17;;;;;;;;;;;;;;
2.584047;47438730;10;;;;;;;;;;;;;;
2.585218;47439901;16;;;;;;;;;;;;;;
2.586547;47441230;18;;;;;;;;;;;;;;
2.589047;47443730;7;;;;;;;;;;;;;;
2.591547;47446230;8;;;;;;;;;;;;;;
2.594047;47448730;16;;;;;;;;;;;;;;
2.601493;47456176;8;;;;;;;;;;;;;;
2.603993;47458676;8;47459480;463.193;707.348;499.433;-19775.0;-4053.833;-5993.792;47459042;100.021;921.375;-322.44;-12073.335;-19827.34;2076.639
2.606493;47461176;9;;;;;;;;;;;;;;
2.608993;47463676;16;;;;;;;;;;;;;;
2.611493;47466176;17;;;;;;;;;;;;;;
2.612942;47467625;9;;;;;;;;;;;;;;
2.613993;47468676;10;;;;;;;;;;;;;;
2.615442;47470125;8;;;;;;;;;;;;;;
2.616493;47471176;16;;;;;;;;;;;;;;
2.617942;47472625;6;;;;;;;;;;;;;;
2.620442;47475125;16;;;;;;;;;;;;;;
2.622942;47477625;18;;;;;;;;;;;;;;
2.625442;47480125;17;;;;;;;;;;;;;;
2.632818;47487501;17;;;;;;;;;;;;;;
2.635318;47490001;8;47490379;464.104;703.311;505.583;-19298.125;-4005.579;-5706.79;47489941;99.82;924.778;-314.114;-12496.918;-19986.598;1510.807
2.637818;47492501;17;;;;;;;;;;;;;;
2.640318;47495001;17;;;;;;;;;;;;;;
2.642818;47497501;17;;;;;;;;;;;;;;
2.645318;47500001;9;;;;;;;;;;;;;;
2.652653;47507336;16;;;;;;;;;;;;;;
2.655153;47509836;9;;;;;;;;;;;;;;
2.657653;47512336;8;47512659;464.255;699.462;510.902;-18567.281;-3880.988;-5426.263;47512221;99.093;922.471;-305.094;-12876.135;-19827.705;1101.892
2.660153;47514836;8;;;;;;;;;;;;;;
2.662653;47517336;8;;;;;;;;;;;;;;
2.664;47518683;8;;;;;;;;;;;;;;
2.665153;47519836;10;;;;;;;;;;;;;;
2.6665;47521183;16;;;;;;;;;;;;;;
2.667653;47522336;10;;;;;;;;;;;;;;
2.669;47523683;16;;;;;;;;;;;;;;
2.6715;47526183;10;;;;;;;;;;;;;;
2.674;47528683;6;;;;;;;;;;;;;;
2.6765;47531183;7;;;;;;;;;;;;;;
2.683805;47538488;9;;;;;;;;;;;;;;
2.686305;47540988;18;47541942;464.583;695.935;516.979;-17856.791;-3864.126;-5060.013;47541498;97.945;920.713;-297.422;-12636.141;-19588.82;854.735
2.688805;47543488;10;;;;;;;;;;;;;;
2.691305;47545988;18;;;;;;;;;;;;;;
2.693805;47548488;16;;;;;;;;;;;;;;
2.696305;47550988;8;;;;;;;;;;;;;;
2.698805;47553488;18;;;;;;;;;;;;;;
2.707526;47562209;8;;;;;;;;;;;;;;
2.710026;47564709;8;47564164;466.058;692.035;522.35;-17268.451;-3833.669;-4659.575;47563722;98.172;922.391;-289.633;-12131.646;-19432.316;714.436
2.712526;47567209;9;;;;;;;;;;;;;;
2.714708;47569391;16;;;;;;;;;;;;;;
2.715026;47569709;8;;;;;;;;;;;;;;
2.717208;47571891;17;;;;;;;;;;;;;;
2.717526;47572209;8;;;;;;;;;;;;;;
2.719708;47574391;16;;;;;;;;;;;;;;
2.720026;47574709;9;;;;;;;;;;;;;;
2.722208;47576891;9;;;;;;;;;;;;;;
2.724708;47579391;9;;;;;;;;;;;;;;
2.727208;47581891;8;;;;;;;;;;;;;;
2.734513;47589196;18;;;;;;;;;;;;;;
2.737013;47591696;10;;;;;;;;47592709;98.101;925.932;-282.41;-11783.626;-19134.889;625.776
2.739513;47594196;16;47593147;467.558;689.141;530.539;-16757.654;-3686.173;-4263.846;;;;;;;
2.742013;47596696;9;;;;;;;;;;;;;;
2.744513;47599196;17;;;;;;;;;;;;;;
2.746075;47600758;16;;;;;;;;;;;;;;
2.747013;47601696;16;;;;;;;;;;;;;;
2.748575;47603258;18;;;;;;;;;;;;;;
2.749513;47604196;10;;;;;;;;;;;;;;
2.751075;47605758;7;;;;;;;;;;;;;;
2.753575;47608258;16;;;;;;;;;;;;;;
2.756075;47610758;17;;;;;;;;;;;;;;
2.758575;47613258;9;;;;;;;;;;;;;;
2.761075;47615758;8;47615462;468.495;687.075;538.373;-16667.896;-3477.365;-3837.591;47615020;96.611;928.978;-276.256;-11789.444;-18970.895;751.112
2.763575;47618258;9;;;;;;;;;;;;;;
2.766075;47620758;8;;;;;;;;;;;;;;
2.768575;47623258;8;;;;;;;;;;;;;;
2.770315;47624998;8;;;;;;;;;;;;;;
2.771075;47625758;9;;;;;;;;;;;;;;
2.773366;47628049;11;;;;;;;;;;;;;;
2.773575;47628258;9;;;;;;;;;;;;;;
2.775866;47630549;8;;;;;;;;;;;;;;
2.778366;47633049;10;;;;;;;;;;;;;;
2.780866;47635549;9;;;;;;;;;;;;;;
2.783366;47638049;7;;;;;;;;;;;;;;
2.785866;47640549;18;;;;;;;;;;;;;;
2.788366;47643049;9;;;;;;;;;;;;;;
2.790866;47645549;9;47645916;469.427;681.641;543.309;-16894.562;-3208.559;-3443.586;47645478;96.618;932.287;-271.075;-11991.847;-18934.975;1001.432
2.793366;47648049;10;;;;;;;;;;;;;;
2.795866;47650549;9;;;;;;;;;;;;;;
2.798366;47653049;18;;;;;;;;;;;;;;
2.800866;47655549;17;;;;;;;;;;;;;;
2.8167;47671383;18;;;;;;;;;;;;;;
2.8192;47673883;17;;;;;;;;47674826;96.13;933.893;-266.647;-12485.129;-18900.414;1149.985
2.8217;47676383;17;47675268;470.57;676.29;547.766;-17053.459;-3078.319;-2934.094;;;;;;;
2.8242;47678883;8;;;;;;;;;;;;;;
2.8267;47681383;17;;;;;;;;;;;;;;
2.8292;47683883;7;;;;;;;;;;;;;;
2.8317;47686383;11;;;;;;;;;;;;;;
2.8325;47687183;22;;;;;;;;;;;;;;
2.835;47689683;26;;;;;;;;;;;;;;
2.8375;47692183;10;;;;;;;;;;;;;;
2.84;47694683;18;;;;;;;;;;;;;;
2.8425;47697183;10;47697566;471.258;669.639;550.151;-16814.16;-3187.34;-2328.889;47697127;96.387;931.558;-261.22;-12811.997;-18825.143;1169.486
2.845;47699683;18;;;;;;;;;;;;;;
2.8475;47702183;17;;;;;;;;;;;;;;
2.85;47704683;17;;;;;;;;;;;;;;
2.8525;47707183;24;;;;;;;;;;;;;;
2.856441;47711124;27;;;;;;;;;;;;;;
2.858941;47713624;9;;;;;;;;;;;;;;
2.861441;47716124;16;;;;;;;;;;;;;;
2.863941;47718624;9;;;;;;;;;;;;;;
2.866441;47721124;7;;;;;;;;;;;;;;
2.868941;47723624;9;47723006;472.559;665.559;554.571;-16182.14;-3301.411;-1861.57;47722564;95.551;930.321;-256.003;-12478.085;-18681.01;1232.637
2.871441;47726124;16;;;;;;;;;;;;;;
2.873941;47728624;24;;;;;;;;;;;;;;
2.87601;47730693;9;;;;;;;;;;;;;;
2.876441;47731124;39;;;;;;;;;;;;;;
2.87851;47733193;8;;;;;;;;;;;;;;
2.878941;47733624;16;;;;;;;;;;;;;;
2.88101;47735693;17;;;;;;;;;;;;;;
2.88351;47738193;9;;;;;;;;;;;;;;
2.88601;47740693;16;;;;;;;;;;;;;;
2.88851;47743193;25;;;;;;;;;;;;;;
2.89101;47745693;40;;;;;;;;;;;;;;
2.89351;47748193;11;;;;;;;;47749119;93.787;932.825;-250.828;-12154.743;-18811.834;1402.88
2.89601;47750693;8;47749558;472.471;662.378;559.947;-15766.345;-3426.84;-1486.304;;;;;;;
2.89851;47753193;16;;;;;;;;;;;;;;
2.90101;47755693;17;;;;;;;;;;;;;;
2.90351;47758193;10;;;;;;;;;;;;;;
2.90601;47760693;8;;;;;;;;;;;;;;
2.907424;47762107;27;;;;;;;;;;;;;;
2.909924;47764607;39;;;;;;;;;;;;;;
2.912424;47767107;7;;;;;;;;;;;;;;
2.914924;47769607;9;;;;;;;;;;;;;;
2.917424;47772107;18;;;;;;;;;;;;;;
2.919924;47774607;16;;;;;;;;;;;;;;
2.922424;47777107;16;;;;;;;;;;;;;;
2.924924;47779607;9;47780462;472.381;659.936;565.274;-15588.34;-3477.311;-1198.051;47780020;91.373;934.965;-243.673;-12061.068;-19010.055;1574.673
2.927424;47782107;27;;;;;;;;;;;;;;
2.929924;47784607;42;;;;;;;;;;;;;;
2.932424;47787107;10;;;;;;;;;;;;;;
2.934924;47789607;9;;;;;;;;;;;;;;
2.937424;47792107;16;;;;;;;;;;;;;;
2.954401;47809084;46;;;;;;;;;;;;;;
2.956901;47811584;16;47811443;472.723;656.158;569.475;-15474.36;-3520.445;-795.586;47811004;89.97;937.669;-235.412;-11970.765;-19170.363;1712.065
2.958781;47813464;17;;;;;;;;;;;;;;
2.959401;47814084;10;;;;;;;;;;;;;;
2.961281;47815964;7;;;;;;;;;;;;;;
2.961901;47816584;7;;;;;;;;;;;;;;
2.963781;47818464;8;;;;;;;;;;;;;;
2.964401;47819084;7;;;;;;;;;;;;;;
2.966237;47820920;55;;;;;;;;;;;;;;
2.966281;47820964;29;;;;;;;;;;;;;;
2.966901;47821584;10;;;;;;;;;;;;;;
2.968737;47823420;8;;;;;;;;;;;;;;
2.969401;47824084;18;;;;;;;;;;;;;;
2.971237;47825920;10;;;;;;;;;;;;;;
2.971901;47826584;29;;;;;;;;;;;;;;
2.973737;47828420;17;;;;;;;;;;;;;;
2.976237;47830920;18;;;;;;;;;;;;;;
2.978737;47833420;9;;;;;;;;;;;;;;
2.981237;47835920;17;;;;;;;;;;;;;;
2.983737;47838420;44;;;;;;;;;;;;;;
2.986237;47840920;71;47840867;476.549;657.193;580.767;-15799.643;-3310.735;-378.682;47840428;86.313;938.964;-224.428;-12047.289;-19189.221;1767.336
2.988737;47843420;30;;;;;;;;;;;;;;
2.991237;47845920;8;;;;;;;;;;;;;;
2.993737;47848420;8;;;;;;;;;;;;;;
2.996237;47850920;16;;;;;;;;;;;;;;
2.997566;47852249;9;;;;;;;;;;;;;;
3.000066;47854749;18;;;;;;;;;;;;;;
3.002566;47857249;59;;;;;;;;;;;;;;
3.005066;47859749;91;;;;;;;;;;;;;;
3.007566;47862249;62;;;;;;;;;;;;;;
3.010066;47864749;9;;;;;;;;;;;;;;
3.012566;47867249;18;;;;;;;;;;;;;;
3.015066;47869749;8;;;;;;;;;;;;;;
3.017566;47872249;8;47871766;477.188;653.705;588.237;-15799.785;-3199.886;-32.498;47871330;86.585;942.993;-212.347;-12562.3;-19118.76;1889.845
3.020066;47874749;23;;;;;;;;;;;;;;
3.022566;47877249;73;;;;;;;;;;;;;;
3.025066;47879749;109;;;;;;;;;;;;;;
3.027566;47882249;88;;;;;;;;;;;;;;
3.044947;47899630;8;;;;;;;;;;;;;;
3.047447;47902130;17;47902670;477.473;648.464;593.534;-16100.921;-2780.017;366.377;47902232;87.093;943.759;-198.557;-13046.747;-18709.697;1985.665
3.049947;47904630;17;;;;;;;;;;;;;;
3.052447;47907130;9;;;;;;;;;;;;;;
3.052481;47907164;121;;;;;;;;;;;;;;
3.054947;47909630;23;;;;;;;;;;;;;;
3.054981;47909664;104;;;;;;;;;;;;;;
3.057447;47912130;78;;;;;;;;;;;;;;
3.057481;47912164;25;;;;;;;;;;;;;;
3.059981;47914664;8;;;;;;;;;;;;;;
3.060344;47915027;91;;;;;;;;;;;;;;
3.062481;47917164;8;;;;;;;;;;;;;;
3.062844;47917527;149;;;;;;;;;;;;;;
3.064981;47919664;7;;;;;;;;;;;;;;
3.065344;47920027;127;;;;;;;;;;;;;;
3.067481;47922164;26;;;;;;;;;;;;;;
3.067844;47922527;58;;;;;;;;;;;;;;
3.070344;47925027;16;;;;;;;;;;;;;;
3.072844;47927527;7;;;;;;;;;;;;;;
3.075344;47930027;8;;;;;;;;;;;;;;
3.077844;47932527;28;47933563;477.981;641.575;597.554;-15938.562;-2105.953;861.246;47933125;88.661;943.688;-184.304;-13034.472;-17810.963;2121.319
3.080344;47935027;92;;;;;;;;;;;;;;
3.082844;47937527;138;;;;;;;;;;;;;;
3.085344;47940027;121;;;;;;;;;;;;;;
3.087844;47942527;39;;;;;;;;;;;;;;
3.090344;47945027;17;;;;;;;;;;;;;;
3.108266;47962949;16;;;;;;;;;;;;;;
3.110766;47965449;19;47964906;478.024;634.183;601.622;-15272.009;-1320.78;1450.809;47964463;90.78;944.388;-169.361;-12664.936;-16296.102;2154.815
3.113266;47967949;24;;;;;;;;;;;;;;
3.115766;47970449;79;;;;;;;;;;;;;;
3.116146;47970829;24;;;;;;;;;;;;;;
3.118266;47972949;123;;;;;;;;;;;;;;
3.118646;47973329;8;;;;;;;;;;;;;;
3.120766;47975449;106;;;;;;;;;;;;;;
3.121146;47975829;16;;;;;;;;;;;;;;
3.123646;47978329;9;;;;;;;;;;;;;;
3.126146;47980829;26;;;;;;;;;;;;;;
3.128646;47983329;90;;;;;;;;;;;;;;
3.135949;47990632;126;;;;;;;;;;;;;;
3.138449;47993132;109;;;;;;;;47994233;92.213;943.834;-154.287;-12099.501;-14080.421;2080.762
3.140949;47995632;29;47994671;477.913;628.008;606.409;-14183.346;-396.366;2134.706;;;;;;;
3.143449;47998132;9;;;;;;;;;;;;;;
3.145949;48000632;8;;;;;;;;;;;;;;
3.147425;48002108;139;;;;;;;;;;;;;;
3.148449;48003132;8;;;;;;;;;;;;;;
3.149925;48004608;126;;;;;;;;;;;;;;
3.150949;48005632;30;;;;;;;;;;;;;;
3.152425;48007108;46;;;;;;;;;;;;;;
3.154925;48009608;10;;;;;;;;;;;;;;
3.157425;48012108;16;;;;;;;;;;;;;;
3.159925;48014608;10;;;;;;;;;;;;;;
3.162425;48017108;27;48016898;477.185;621.106;610.572;-12857.741;592.515;2746.345;48016456;94.361;941.819;-140.186;-11239.9;-11505.649;2004.287
3.164925;48019608;92;;;;;;;;;;;;;;
3.167425;48022108;141;;;;;;;;;;;;;;
3.169925;48024608;119;;;;;;;;;;;;;;
3.17158;48026263;92;;;;;;;;;;;;;;
3.172425;48027108;31;;;;;;;;;;;;;;
3.174925;48029608;9;;;;;;;;;;;;;;
3.175316;48029999;8;;;;;;;;;;;;;;
3.177816;48032499;8;;;;;;;;;;;;;;
3.180316;48034999;30;;;;;;;;;;;;;;
3.182816;48037499;104;;;;;;;;;;;;;;
3.185316;48039999;144;;;;;;;;;;;;;;
3.187816;48042499;137;;;;;;;;;;;;;;
3.190316;48044999;57;;;;;;;;;;;;;;
3.192816;48047499;17;48048220;476.878;614.81;614.533;-11161.354;1698.201;3424.09;48047781;97.756;939.465;-128.48;-9843.593;-8402.492;1947.385
3.195316;48049999;19;;;;;;;;;;;;;;
3.197816;48052499;7;;;;;;;;;;;;;;
3.200316;48054999;31;;;;;;;;;;;;;;
3.202816;48057499;107;;;;;;;;;;;;;;
3.202928;48057611;157;;;;;;;;;;;;;;
3.205428;48060111;142;;;;;;;;;;;;;;
3.207928;48062611;62;;;;;;;;;;;;;;
3.210428;48065111;9;;;;;;;;;;;;;;
3.212928;48067611;17;;;;;;;;;;;;;;
3.215428;48070111;9;;;;;;;;;;;;;;
3.217928;48072611;30;;;;;;;;;;;;;;
3.220428;48075111;96;;;;;;;;;;;;;;
3.222928;48077611;143;48077833;477.343;609.653;617.82;-9198.474;2872.854;4253.011;48077391;101.274;937.601;-118.225;-8057.726;-4824.055;1846.078
3.225428;48080111;120;;;;;;;;;;;;;;
3.227928;48082611;39;;;;;;;;;;;;;;
3.230428;48085111;18;;;;;;;;;;;;;;
3.232928;48087611;16;;;;;;;;;;;;;;
3.246209;48100892;138;;;;;;;;;;;;;;
3.248709;48103392;122;;;;;;;;;;;;;;
3.251209;48105892;40;;;;;;;;;;;;;;
3.253709;48108392;18;48108985;477.869;601.124;619.338;-7371.8;4237.273;5068.923;48108546;104.878;936.197;-110.667;-5457.277;-794.54;1478.149
3.256209;48110892;18;;;;;;;;;;;;;;
3.258484;48113167;8;;;;;;;;;;;;;;
3.258709;48113392;16;;;;;;;;;;;;;;
3.260984;48115667;29;;;;;;;;;;;;;;
3.261209;48115892;30;;;;;;;;;;;;;;
3.263484;48118167;94;;;;;;;;;;;;;;
3.263709;48118392;105;;;;;;;;;;;;;;
3.266209;48120892;155;;;;;;;;;;;;;;
3.268709;48123392;136;;;;;;;;;;;;;;
3.282217;48136900;58;;;;;;;;;;;;;;
3.284717;48139400;8;48140229;477.626;595.639;622.714;-4876.085;5631.472;6047.477;48139790;109.077;934.533;-105.707;-2873.101;3512.562;1039.367
3.287217;48141900;8;;;;;;;;;;;;;;
3.289717;48144400;17;;;;;;;;;;;;;;
3.289784;48144467;137;;;;;;;;;;;;;;
3.292217;48146900;31;;;;;;;;;;;;;;
3.292284;48146967;111;;;;;;;;;;;;;;
3.294717;48149400;93;;;;;;;;;;;;;;
3.294784;48149467;24;;;;;;;;;;;;;;
3.297284;48151967;18;;;;;;;;;;;;;;
3.299784;48154467;9;;;;;;;;;;;;;;
3.302284;48156967;8;;;;;;;;;;;;;;
3.304784;48159467;24;;;;;;;;;;;;;;
3.313283;48167966;76;;;;;;;;;;;;;;
3.315783;48170466;111;48170953;475.21;593.423;623.213;-2047.093;6928.836;6942.103;48170514;110.803;935.441;-104.521;-283.821;8005.496;634.336
3.318283;48172966;79;;;;;;;;;;;;;;
3.320783;48175466;16;;;;;;;;;;;;;;
3.320924;48175607;9;;;;;;;;;;;;;;
3.323283;48177966;8;;;;;;;;;;;;;;
3.323424;48178107;24;;;;;;;;;;;;;;
3.325783;48180466;9;;;;;;;;;;;;;;
3.325924;48180607;77;;;;;;;;;;;;;;
3.328424;48183107;111;;;;;;;;;;;;;;
3.330924;48185607;79;;;;;;;;;;;;;;
3.333424;48188107;9;;;;;;;;;;;;;;
3.335924;48190607;9;;;;;;;;;;;;;;
3.343942;48198625;120;;;;;;;;;;;;;;
3.346442;48201125;87;48201424;475.258;592.867;625.48;1465.574;8074.269;7971.373;48200978;114.376;935.542;-108.097;2480.058;12547.221;-61.506
3.348254;48202937;17;;;;;;;;;;;;;;
3.348942;48203625;40;;;;;;;;;;;;;;
3.350754;48205437;9;;;;;;;;;;;;;;
3.351442;48206125;9;;;;;;;;;;;;;;
3.353254;48207937;25;;;;;;;;;;;;;;
3.353942;48208625;9;;;;;;;;;;;;;;
3.355754;48210437;80;;;;;;;;;;;;;;
3.356442;48211125;18;;;;;;;;;;;;;;
3.358942;48213625;25;;;;;;;;;;;;;;
3.361442;48216125;80;;;;;;;;;;;;;;
3.371428;48226111;120;;;;;;;;;;;;;;
3.373928;48228611;90;;;;;;;;;;;;;;
3.376428;48231111;17;48230498;472.949;597.628;630.361;4408.42;9320.806;8915.054;48230060;115.941;936.625;-114.337;5141.18;16766.047;-633.743
3.378928;48233611;8;;;;;;;;;;;;;;
3.381428;48236111;8;;;;;;;;;;;;;;
3.383928;48238611;16;;;;;;;;;;;;;;
3.386428;48241111;26;;;;;;;;;;;;;;
3.394892;48249575;79;;;;;;;;;;;;;;
3.397392;48252075;112;48252378;471.365;602.297;634.083;7111.375;10397.828;9766.488;48251936;116.207;939.728;-122.449;7457.934;20496.119;-917.931
3.399892;48254575;90;;;;;;;;;;;;;;
3.402392;48257075;17;;;;;;;;;;;;;;
3.402596;48257279;16;;;;;;;;;;;;;;
3.404892;48259575;9;;;;;;;;;;;;;;
3.405096;48259779;40;;;;;;;;;;;;;;
3.407392;48262075;16;;;;;;;;;;;;;;
3.407596;48262279;104;;;;;;;;;;;;;;
3.410096;48264779;143;;;;;;;;;;;;;;
3.412596;48267279;124;;;;;;;;;;;;;;
3.415096;48269779;45;;;;;;;;;;;;;;
3.417596;48272279;16;;;;;;;;;;;;;;
3.426699;48281382;17;;;;;;;;;;;;;;
3.429199;48283882;9;48283527;471.538;605.518;635.141;8980.056;11502.374;10525.914;48283089;116.265;944.61;-132.015;9182.412;23710.688;-1092.097
3.431699;48286382;44;;;;;;;;;;;;;;
3.434199;48288882;122;;;;;;;;;;;;;;
3.434609;48289292;91;;;;;;;;;;;;;;
3.436699;48291382;182;;;;;;;;;;;;;;
3.437109;48291792;9;;;;;;;;;;;;;;
3.439199;48293882;168;;;;;;;;;;;;;;
3.439609;48294292;9;;;;;;;;;;;;;;
3.442109;48296792;10;;;;;;;;;;;;;;
3.444609;48299292;59;;;;;;;;;;;;;;
3.447109;48301792;141;;;;;;;;;;;;;;
3.454573;48309256;202;;;;;;;;;;;;;;
3.457073;48311756;199;;;;;;;;48312778;115.441;950.017;-144.947;10160.041;26471.84;-1453.992
3.459573;48314256;133;48313216;471.062;607.816;635.623;10487.553;12638.755;11104.743;;;;;;;
3.462073;48316756;39;;;;;;;;;;;;;;
3.462558;48317241;169;;;;;;;;;;;;;;
3.464573;48319256;9;;;;;;;;;;;;;;
3.465058;48319741;240;;;;;;;;;;;;;;
3.467073;48321756;9;;;;;;;;;;;;;;
3.467558;48322241;248;;;;;;;;;;;;;;
3.469573;48324256;75;;;;;;;;;;;;;;
3.470058;48324741;190;;;;;;;;;;;;;;
3.472558;48327241;110;;;;;;;;;;;;;;
3.475058;48329741;62;;;;;;;;;;;;;;
3.477558;48332241;76;;;;;;;;;;;;;;
3.480058;48334741;158;48335694;469.469;612.702;636.495;11521.112;13587.505;11561.881;48335258;112.585;953.256;-157.805;10547.602;28741.873;-1815.292
3.482558;48337241;269;;;;;;;;;;;;;;
3.485058;48339741;349;;;;;;;;;;;;;;
3.487558;48342241;365;;;;;;;;;;;;;;
3.490058;48344741;328;;;;;;;;;;;;;;
3.492558;48347241;255;;;;;;;;;;;;;;
3.495291;48349974;219;;;;;;;;;;;;;;
3.497791;48352474;249;;;;;;;;;;;;;;
3.500291;48354974;329;;;;;;;;;;;;;;
3.502791;48357474;439;;;;;;;;;;;;;;
3.505291;48359974;509;;;;;;;;;;;;;;
3.507791;48362474;525;;;;;;;;;;;;;;
3.510291;48364974;487;;;;;;;;;;;;;;
3.512791;48367474;409;48367901;467.528;614.555;633.224;12202.869;14247.317;11712.662;48367463;110.543;953.051;-168.642;10693.097;30265.342;-2155.028
3.515291;48369974;366;;;;;;;;;;;;;;
3.517791;48372474;390;;;;;;;;;;;;;;
3.520291;48374974;460;;;;;;;;;;;;;;
3.522791;48377474;570;;;;;;;;;;;;;;
3.53606;48390743;639;;;;;;;;;;;;;;
3.53856;48393243;648;;;;;;;;;;;;;;
3.54106;48395743;600;;;;;;;;;;;;;;
3.54356;48398243;522;48398712;465.697;616.249;631.654;13185.226;14763.889;11770.592;48398276;109.164;953.259;-179.108;11069.754;31318.012;-2703.526
3.54606;48400743;476;;;;;;;;;;;;;;
3.54856;48403243;491;;;;;;;;;;;;;;
3.55106;48405743;569;;;;;;;;;;;;;;
3.552673;48407356;734;;;;;;;;;;;;;;
3.55356;48408243;667;;;;;;;;;;;;;;
3.555173;48409856;735;;;;;;;;;;;;;;
3.557673;48412356;685;;;;;;;;;;;;;;
3.560173;48414856;614;;;;;;;;;;;;;;
3.562673;48417356;555;;;;;;;;;;;;;;
3.565173;48419856;584;;;;;;;;;;;;;;
3.567673;48422356;654;48423281;462.817;621.329;631.987;13893.151;15074.819;11787.125;48422843;105.511;955.238;-189.148;11228.953;31813.611;-3228.975
3.570173;48424856;749;;;;;;;;;;;;;;
3.572673;48427356;827;;;;;;;;;;;;;;
3.575173;48429856;841;;;;;;;;;;;;;;
3.577673;48432356;791;;;;;;;;;;;;;;
3.580173;48434856;714;;;;;;;;;;;;;;
3.581453;48436136;670;;;;;;;;;;;;;;
3.583953;48438636;686;;;;;;;;;;;;;;
3.586453;48441136;777;;;;;;;;;;;;;;
3.588953;48443636;885;;;;;;;;;;;;;;
3.591453;48446136;953;;;;;;;;;;;;;;
3.593953;48448636;959;;;;;;;;;;;;;;
3.596453;48451136;923;;;;;;;;;;;;;;
3.598953;48453636;861;48454085;459.812;626.161;630.778;14010.056;15165.016;11651.456;48453649;102.139;952.36;-198.076;11317.192;31751.555;-3643.276
3.601453;48456136;832;;;;;;;;;;;;;;
3.603953;48458636;861;;;;;;;;;;;;;;
3.606453;48461136;955;;;;;;;;;;;;;;
3.608953;48463636;1078;;;;;;;;;;;;;;
3.610367;48465050;1162;;;;;;;;;;;;;;
3.612867;48467550;1180;;;;;;;;;;;;;;
3.615367;48470050;1148;;;;;;;;;;;;;;
3.617867;48472550;1097;;;;;;;;;;;;;;
3.620367;48475050;1079;;;;;;;;;;;;;;
3.622867;48477550;1117;;;;;;;;;;;;;;
3.625367;48480050;1226;;;;;;;;;;;;;;
3.627867;48482550;1352;;;;;;;;;;;;;;
3.630367;48485050;1447;48484995;458.391;631.532;632.252;13606.615;15070.89;11369.883;48484556;101.235;948.79;-206.899;11483.271;31124.727;-3678.113
3.632867;48487550;1471;;;;;;;;;;;;;;
3.635367;48490050;1439;;;;;;;;;;;;;;
3.637867;48492550;1401;;;;;;;;;;;;;;
3.640367;48495050;1371;;;;;;;;;;;;;;
3.656585;48511268;1704;;;;;;;;;;;;;;
3.659085;48513768;1719;;;;;;;;;;;;;;
3.661585;48516268;1662;;;;;;;;;;;;;;
3.664085;48518768;1594;48518492;455.04;632.749;629.7;12355.784;14890.47;11064.326;48518056;97.588;954.719;-214.079;10486.919;29884.803;-3360.332
3.666585;48521268;1549;;;;;;;;;;;;;;
3.668235;48522918;1407;;;;;;;;;;;;;;
3.669085;48523768;1566;;;;;;;;;;;;;;
3.670735;48525418;1515;;;;;;;;;;;;;;
3.671585;48526268;1647;;;;;;;;;;;;;;
3.673235;48527918;1626;;;;;;;;;;;;;;
3.674085;48528768;1740;;;;;;;;;;;;;;
3.676585;48531268;1801;;;;;;;;;;;;;;
3.678114;48532797;1721;;;;;;;;;;;;;;
3.679085;48533768;1788;;;;;;;;;;;;;;
3.680614;48535297;1624;;;;;;;;;;;;;;
3.683114;48537797;1562;;;;;;;;;;;;;;
3.685614;48540297;1567;;;;;;;;;;;;;;
3.688114;48542797;1641;;;;;;;;;;;;;;
3.690614;48545297;1736;;;;;;;;;;;;;;
3.693114;48547797;1791;;;;;;;;;;;;;;
3.695614;48550297;1801;;;;;;;;48551469;95.21;957.064;-220.632;9007.511;28377.875;-3303.003
3.698114;48552797;1740;48551907;452.254;635.876;630.496;11008.683;14528.759;10605.172;;;;;;;
3.700614;48555297;1662;;;;;;;;;;;;;;
3.703114;48557797;1614;;;;;;;;;;;;;;
3.705614;48560297;1639;;;;;;;;;;;;;;
3.708114;48562797;1720;;;;;;;;;;;;;;
3.711832;48566515;1821;;;;;;;;;;;;;;
3.714332;48569015;1885;;;;;;;;;;;;;;
3.716832;48571515;1886;;;;;;;;;;;;;;
3.719332;48574015;1823;;;;;;;;;;;;;;
3.721832;48576515;1742;;;;;;;;;;;;;;
3.724332;48579015;1692;;;;;;;;;;;;;;
3.726832;48581515;1707;;;;;;;;;;;;;;
3.729332;48584015;1784;48585237;450.106;638.712;631.063;9325.561;13982.57;10027.663;48584801;93.518;953.753;-226.595;7347.447;26523.23;-2898.978
3.731832;48586515;1882;;;;;;;;;;;;;;
3.734332;48589015;1947;;;;;;;;;;;;;;
3.736832;48591515;1944;;;;;;;;;;;;;;
3.739332;48594015;1880;;;;;;;;;;;;;;
3.741832;48596515;1788;;;;;;;;;;;;;;
3.745974;48600657;1975;;;;;;;;;;;;;;
3.748474;48603157;1962;;;;;;;;;;;;;;
3.750974;48605657;1887;;;;;;;;;;;;;;
3.753474;48608157;1790;;;;;;;;;;;;;;
3.755974;48610657;1736;;;;;;;;;;;;;;
3.758474;48613157;1738;;;;;;;;;;;;;;
3.760974;48615657;1803;;;;;;;;;;;;;;
3.763474;48618157;1896;48618485;448.841;640.125;632.206;7517.907;13209.504;9358.718;48618046;92.965;954.756;-230.216;5698.2;24371.943;-2252.216
3.765484;48620167;1737;;;;;;;;;;;;;;
3.765974;48620657;1949;;;;;;;;;;;;;;
3.767984;48622667;1741;;;;;;;;;;;;;;
3.768474;48623157;1935;;;;;;;;;;;;;;
3.770484;48625167;1815;;;;;;;;;;;;;;
3.770974;48625657;1856;;;;;;;;;;;;;;
3.772984;48627667;1913;;;;;;;;;;;;;;
3.773474;48628157;1758;;;;;;;;;;;;;;
3.775974;48630657;1692;;;;;;;;;;;;;;
3.778474;48633157;1694;;;;;;;;;;;;;;
3.780974;48635657;1757;;;;;;;;;;;;;;
3.788036;48642719;1849;;;;;;;;;;;;;;
3.790536;48645219;1901;;;;;;;;;;;;;;
3.793036;48647719;1883;;;;;;;;;;;;;;
3.795536;48650219;1807;;;;;;;;;;;;;;
3.798036;48652719;1710;;;;;;;;;;;;;;
3.800536;48655219;1654;;;;;;;;;;;;;;
3.803036;48657719;1659;;;;;;;;;;;;;;
3.805536;48660219;1725;;;;;;;;48661093;93.703;960.57;-230.009;2730.54;22136.158;-1807.98
3.808036;48662719;1816;48661531;447.633;638.795;632.243;6140.137;12480.341;8710.532;;;;;;;
3.810536;48665219;1870;;;;;;;;;;;;;;
3.813036;48667719;1864;;;;;;;;;;;;;;
3.815536;48670219;1786;;;;;;;;;;;;;;
3.818036;48672719;1691;;;;;;;;;;;;;;
3.8218;48676483;1640;;;;;;;;;;;;;;
3.8243;48678983;1644;;;;;;;;;;;;;;
3.8268;48681483;1721;;;;;;;;;;;;;;
3.8293;48683983;1816;;;;;;;;;;;;;;
3.8318;48686483;1881;;;;;;;;;;;;;;
3.8343;48688983;1870;;;;;;;;;;;;;;
3.8368;48691483;1806;;;;;;;;;;;;;;
3.8393;48693983;1724;48694696;446.699;643.931;638.408;4805.88;11872.073;8164.756;48694254;95.96;965.239;-230.885;-1041.613;19770.662;-1495.769
3.8418;48696483;1675;;;;;;;;;;;;;;
3.8443;48698983;1703;;;;;;;;;;;;;;
3.8468;48701483;1786;;;;;;;;;;;;;;
3.8493;48703983;1886;;;;;;;;;;;;;;
3.851373;48706056;1960;;;;;;;;;;;;;;
3.853873;48708556;1961;;;;;;;;;;;;;;
3.856373;48711056;1902;;;;;;;;;;;;;;
3.858873;48713556;1822;;;;;;;;;;;;;;
3.861373;48716056;1787;;;;;;;;;;;;;;
3.863873;48718556;1816;;;;;;;;;;;;;;
3.866373;48721056;1897;;;;;;;;;;;;;;
3.868873;48723556;2010;;;;;;;;;;;;;;
3.871373;48726056;2077;48726288;445.867;650.476;644.954;3146.773;11345.407;7549.581;48725849;98.189;965.307;-228.686;-5609.969;17362.879;-1006.23
3.873873;48728556;2077;;;;;;;;;;;;;;
3.876373;48731056;2015;;;;;;;;;;;;;;
3.878873;48733556;1932;;;;;;;;;;;;;;
3.881373;48736056;1887;;;;;;;;;;;;;;
3.88495;48739633;1915;;;;;;;;;;;;;;
3.88745;48742133;1996;;;;;;;;;;;;;;
3.88995;48744633;2105;;;;;;;;;;;;;;
3.89245;48747133;2171;;;;;;;;;;;;;;
3.89495;48749633;2172;;;;;;;;;;;;;;
3.89745;48752133;2108;;;;;;;;;;;;;;
3.89995;48754633;2024;;;;;;;;;;;;;;
3.90245;48757133;1979;;;;;;;;;;;;;;
3.90495;48759633;1996;48759536;445.777;650.837;650.032;521.06;10846.824;6790.602;48759094;100.118;963.878;-221.577;-10791.658;14921.047;21.019
3.90745;48762133;2090;;;;;;;;;;;;;;
3.90995;48764633;2202;;;;;;;;;;;;;;
3.91245;48767133;2268;;;;;;;;;;;;;;
3.91495;48769633;2272;;;;;;;;;;;;;;
3.918802;48773485;2216;;;;;;;;;;;;;;
3.921302;48775985;2140;;;;;;;;;;;;;;
3.923802;48778485;2107;;;;;;;;;;;;;;
3.926302;48780985;2142;;;;;;;;;;;;;;
3.928802;48783485;2237;;;;;;;;;;;;;;
3.931302;48785985;2360;;;;;;;;;;;;;;
3.933802;48788485;2439;;;;;;;;;;;;;;
3.936302;48790985;2442;;;;;;;;48792160;100.15;968.083;-217.245;-15656.075;12448.619;995.155
3.938802;48793485;2396;48792598;445.205;644.287;651.471;-2307.618;10294.42;5902.009;;;;;;;
3.941302;48795985;2332;;;;;;;;;;;;;;
3.943802;48798485;2299;;;;;;;;;;;;;;
3.946302;48800985;2334;;;;;;;;;;;;;;
3.948802;48803485;2431;;;;;;;;;;;;;;
3.956461;48811144;2617;;;;;;;;;;;;;;
3.958961;48813644;2615;;;;;;;;;;;;;;
3.961461;48816144;2554;;;;;;;;;;;;;;
3.963961;48818644;2478;;;;;;;;;;;;;;
3.966461;48821144;2444;;;;;;;;;;;;;;
3.968961;48823644;2475;;;;;;;;;;;;;;
3.971461;48826144;2570;48825934;446.069;641.292;657.816;-3170.05;9843.574;4988.721;48825492;98.772;979.623;-208.713;-21302.334;9844.313;1845.335
3.973961;48828644;2672;;;;;;;;;;;;;;
3.976461;48831144;2735;;;;;;;;;;;;;;
3.978961;48833644;2744;;;;;;;;;;;;;;
3.980416;48835099;2542;;;;;;;;;;;;;;
3.981461;48836144;2680;;;;;;;;;;;;;;
3.983961;48838644;2617;;;;;;;;;;;;;;
3.986202;48840885;2575;;;;;;;;;;;;;;
3.988702;48843385;2605;;;;;;;;;;;;;;
3.991202;48845885;2700;;;;;;;;;;;;;;
3.993702;48848385;2811;;;;;;;;;;;;;;
3.996202;48850885;2875;;;;;;;;;;;;;;
3.998702;48853385;2873;;;;;;;;;;;;;;
4.001202;48855885;2823;;;;;;;;;;;;;;
4.003702;48858385;2746;48859080;448.349;626.612;656.913;-6474.36;8780.458;3904.535;48858641;103.49;971.555;-194.172;-27254.279;7235.91;2425.943
4.006202;48860885;2715;;;;;;;;;;;;;;
4.008702;48863385;2748;;;;;;;;;;;;;;
4.011202;48865885;2841;;;;;;;;;;;;;;
4.013702;48868385;2954;;;;;;;;;;;;;;
4.015855;48870538;3017;;;;;;;;;;;;;;
4.018355;48873038;3017;;;;;;;;;;;;;;
4.020855;48875538;2957;;;;;;;;;;;;;;
4.023355;48878038;2894;;;;;;;;;;;;;;
4.025855;48880538;2863;;;;;;;;;;;;;;
4.028355;48883038;2907;;;;;;;;;;;;;;
4.030855;48885538;3006;;;;;;;;;;;;;;
4.033355;48888038;3130;;;;;;;;;;;;;;
4.035855;48890538;3183;48890687;446.909;612.35;653.72;-10058.829;7852.31;2843.495;48890245;104.172;957.772;-174.38;-32657.502;4988.49;3264.959
4.038355;48893038;3183;;;;;;;;;;;;;;
4.040855;48895538;3131;;;;;;;;;;;;;;
4.043355;48898038;3063;;;;;;;;;;;;;;
4.045855;48900538;3032;;;;;;;;;;;;;;
4.046031;48900714;3356;;;;;;;;;;;;;;
4.048531;48903214;3353;;;;;;;;;;;;;;
4.051031;48905714;3288;;;;;;;;;;;;;;
4.053531;48908214;3209;;;;;;;;;;;;;;
4.056031;48910714;3165;;;;;;;;;;;;;;
4.058531;48913214;3196;;;;;;;;;;;;;;
4.061031;48915714;3288;;;;;;;;;;;;;;
4.063531;48918214;3415;;;;;;;;;;;;;;
4.066031;48920714;3464;;;;;;;;;;;;;;
4.068531;48923214;3438;48924010;443.828;591.437;649.832;-12247.388;6824.006;2151.383;48923571;109.284;947.483;-151.594;-36261.062;2818.878;4513.961
4.071031;48925714;3356;;;;;;;;;;;;;;
4.073531;48928214;3261;;;;;;;;;;;;;;
4.073672;48928355;3069;;;;;;;;;;;;;;
4.076031;48930714;3209;;;;;;;;;;;;;;
4.076172;48930855;3176;;;;;;;;;;;;;;
4.078531;48933214;3224;;;;;;;;;;;;;;
4.078672;48933355;3304;;;;;;;;;;;;;;
4.081031;48935714;3294;;;;;;;;;;;;;;
4.083531;48938214;3406;;;;;;;;;;;;;;
4.092424;48947107;3449;;;;;;;;;;;;;;
4.094924;48949607;3416;;;;;;;;;;;;;;
4.097424;48952107;3320;;;;;;;;;;;;;;
4.099924;48954607;3211;;;;;;;;;;;;;;
4.102424;48957107;3147;;;;;;;;;;;;;;
4.104924;48959607;3145;;;;;;;;;;;;;;
4.107424;48962107;3208;;;;;;;;;;;;;;
4.109924;48964607;3292;;;;;;;;;;;;;;
4.112424;48967107;3311;48967232;440.674;587.528;652.232;-13383.269;5978.806;1719.189;48966794;118.271;936.99;-122.957;-37956.32;1369.372;5544.763
4.114924;48969607;3262;;;;;;;;;;;;;;
4.117424;48972107;3161;;;;;;;;;;;;;;
4.119924;48974607;3036;;;;;;;;;;;;;;
4.122424;48977107;2956;;;;;;;;;;;;;;
4.130095;48984778;2942;;;;;;;;;;;;;;
4.132595;48987278;2987;;;;;;;;;;;;;;
4.135095;48989778;3048;;;;;;;;;;;;;;
4.137595;48992278;3054;;;;;;;;;;;;;;
4.140095;48994778;2999;;;;;;;;;;;;;;
4.142595;48997278;2875;;;;;;;;;;;;;;
4.145095;48999778;2749;49000562;439.137;579.855;656.501;-14835.104;5252.428;1358.479;49000126;124.685;930.406;-95.35;-38344.004;287.653;6146.462
4.147595;49002278;2663;;;;;;;;;;;;;;
4.150095;49004778;2631;;;;;;;;;;;;;;
4.151554;49006237;2701;;;;;;;;;;;;;;
4.152595;49007278;2663;;;;;;;;;;;;;;
4.154054;49008737;2633;;;;;;;;;;;;;;
4.155095;49009778;2703;;;;;;;;;;;;;;
4.156554;49011237;2496;;;;;;;;;;;;;;
4.159054;49013737;2364;;;;;;;;;;;;;;
4.161554;49016237;2270;;;;;;;;;;;;;;
4.164054;49018737;2237;;;;;;;;;;;;;;
4.166554;49021237;2263;;;;;;;;;;;;;;
4.169054;49023737;2302;;;;;;;;;;;;;;
4.171554;49026237;2298;;;;;;;;;;;;;;
4.174054;49028737;2222;;;;;;;;;;;;;;
4.176554;49031237;2092;49030426;438.957;568.052;659.623;-15434.724;4534.369;1154.055;49029988;132.768;923.109;-67.176;-38308.055;-510.73;6673.451
4.179054;49033737;1948;;;;;;;;;;;;;;
4.181554;49036237;1850;;;;;;;;;;;;;;
4.184054;49038737;1820;;;;;;;;;;;;;;
4.186554;49041237;1848;;;;;;;;;;;;;;
4.193565;49048248;1895;;;;;;;;;;;;;;
4.196065;49050748;1897;;;;;;;;;;;;;;
4.198565;49053248;1821;;;;;;;;;;;;;;
4.201065;49055748;1702;;;;;;;;;;;;;;
4.203565;49058248;1565;;;;;;;;;;;;;;
4.206065;49060748;1480;;;;;;;;;;;;;;
4.208565;49063248;1463;;;;;;;;;;;;;;
4.211065;49065748;1497;49066959;437.712;558.304;664.859;-15208.55;3927.9;1063.103;49066524;139.8;917.494;-41.26;-37357.34;-672.443;7017.466
4.213565;49068248;1547;;;;;;;;;;;;;;
4.216065;49070748;1560;;;;;;;;;;;;;;
4.218565;49073248;1496;;;;;;;;;;;;;;
4.221065;49075748;1374;;;;;;;;;;;;;;
4.223565;49078248;1258;;;;;;;;;;;;;;
4.227334;49082017;1183;;;;;;;;;;;;;;
4.229834;49084517;1168;;;;;;;;;;;;;;
4.232334;49087017;1212;;;;;;;;;;;;;;
4.234834;49089517;1273;;;;;;;;;;;;;;
4.237334;49092017;1289;;;;;;;;;;;;;;
4.239834;49094517;1231;;;;;;;;;;;;;;
4.242334;49097017;1129;;;;;;;;;;;;;;
4.244834;49099517;1016;49100207;438.885;551.519;672.51;-14651.56;3494.38;1084.76;49099769;148.712;914.936;-15.694;-36062.16;-676.446;7208.217
4.247334;49102017;952;;;;;;;;;;;;;;
4.249834;49104517;944;;;;;;;;;;;;;;
4.252334;49107017;1000;;;;;;;;;;;;;;
4.254834;49109517;1064;;;;;;;;;;;;;;
4.256557;49111240;1083;;;;;;;;;;;;;;
4.259057;49113740;1034;;;;;;;;;;;;;;
4.261557;49116240;928;;;;;;;;;;;;;;
4.264057;49118740;826;;;;;;;;;;;;;;
4.266557;49121240;761;;;;;;;;;;;;;;
4.269057;49123740;765;;;;;;;;;;;;;;
4.271557;49126240;823;;;;;;;;;;;;;;
4.274057;49128740;887;;;;;;;;;;;;;;
4.276557;49131240;907;49131626;439.023;544.933;678.559;-13978.481;3118.411;1065.522;49131191;155.246;913.554;8.393;-34602.926;-544.186;7206.119
4.279057;49133740;861;;;;;;;;;;;;;;
4.281557;49136240;764;;;;;;;;;;;;;;
4.284057;49138740;664;;;;;;;;;;;;;;
4.286557;49141240;604;;;;;;;;;;;;;;
4.289183;49143866;615;;;;;;;;;;;;;;
4.291683;49146366;669;;;;;;;;;;;;;;
4.294183;49148866;734;;;;;;;;;;;;;;
4.296683;49151366;765;;;;;;;;;;;;;;
4.299183;49153866;729;;;;;;;;;;;;;;
4.301683;49156366;634;;;;;;;;;;;;;;
4.304183;49158866;536;;;;;;;;;;;;;;
4.306683;49161366;476;;;;;;;;;;;;;;
4.309183;49163866;491;49163744;439.129;537.804;683.299;-12988.62;2831.241;989.496;49163306;162.197;910.625;31.208;-32922.652;-227.352;7001.125
4.311683;49166366;555;;;;;;;;;;;;;;
4.314183;49168866;633;;;;;;;;;;;;;;
4.316683;49171366;665;;;;;;;;;;;;;;
4.319183;49173866;631;;;;;;;;;;;;;;
4.321687;49176370;538;;;;;;;;;;;;;;
4.324187;49178870;441;;;;;;;;;;;;;;
4.326687;49181370;392;;;;;;;;;;;;;;
4.329187;49183870;408;;;;;;;;;;;;;;
4.331687;49186370;473;;;;;;;;;;;;;;
4.334187;49188870;556;;;;;;;;;;;;;;
4.336687;49191370;589;;;;;;;;;;;;;;
4.339187;49193870;557;;;;;;;;;;;;;;
4.341687;49196370;473;49195679;439.114;530.879;688.302;-11330.751;2633.241;1138.208;49195243;168.812;903.798;53.963;-30409.395;330.016;6678.194
4.344187;49198870;378;;;;;;;;;;;;;;
4.346687;49201370;332;;;;;;;;;;;;;;
4.349187;49203870;358;;;;;;;;;;;;;;
4.351687;49206370;426;;;;;;;;;;;;;;
4.357984;49212667;552;;;;;;;;;;;;;;
4.360484;49215167;522;;;;;;;;;;;;;;
4.362984;49217667;431;;;;;;;;;;;;;;
4.365484;49220167;345;;;;;;;;;;;;;;
4.367984;49222667;299;;;;;;;;;;;;;;
4.370484;49225167;315;;;;;;;;;;;;;;
4.372984;49227667;391;49227625;438.637;525.026;692.5;-9222.9;2494.142;1401.111;49227187;174.731;895.867;74.865;-27113.986;1133.39;6349.534
4.375484;49230167;471;;;;;;;;;;;;;;
4.377984;49232667;507;;;;;;;;;;;;;;
4.380484;49235167;472;;;;;;;;;;;;;;
4.382025;49236708;508;;;;;;;;;;;;;;
4.382984;49237667;381;;;;;;;;;;;;;;
4.385484;49240167;295;;;;;;;;;;;;;;
4.386499;49241182;250;;;;;;;;;;;;;;
4.388999;49243682;263;;;;;;;;;;;;;;
4.391499;49246182;332;;;;;;;;;;;;;;
4.393999;49248682;411;;;;;;;;;;;;;;
4.396499;49251182;443;;;;;;;;;;;;;;
4.398999;49253682;411;;;;;;;;;;;;;;
4.401499;49256182;318;;;;;;;;;;;;;;
4.403999;49258682;222;49259559;438.384;518.582;692.48;-6496.817;2252.185;1773.805;49259121;180.275;890.279;91.911;-22741.725;2131.97;6038.62
4.406499;49261182;175;;;;;;;;;;;;;;
4.408999;49263682;191;;;;;;;;;;;;;;
4.411499;49266182;266;;;;;;;;;;;;;;
4.413999;49268682;344;;;;;;;;;;;;;;
4.414979;49269662;377;;;;;;;;;;;;;;
4.417479;49272162;335;;;;;;;;;;;;;;
4.419979;49274662;248;;;;;;;;;;;;;;
4.422479;49277162;153;;;;;;;;;;;;;;
4.424979;49279662;96;;;;;;;;;;;;;;
4.427479;49282162;121;;;;;;;;;;;;;;
4.429979;49284662;187;;;;;;;;;;;;;;
4.432479;49287162;266;;;;;;;;;;;;;;
4.434979;49289662;298;49289952;438.437;514.869;691.894;-2830.352;1945.763;2095.927;49289509;184.833;885.213;103.938;-17714.389;3325.184;5370.064
4.437479;49292162;263;;;;;;;;;;;;;;
4.439979;49294662;170;;;;;;;;;;;;;;
4.442479;49297162;74;;;;;;;;;;;;;;
4.443126;49297809;235;;;;;;;;;;;;;;
4.444979;49299662;26;;;;;;;;;;;;;;
4.445626;49300309;201;;;;;;;;;;;;;;
4.448126;49302809;120;;;;;;;;;;;;;;
4.450626;49305309;25;;;;;;;;;;;;;;
4.453126;49307809;7;;;;;;;;;;;;;;
4.455626;49310309;25;;;;;;;;;;;;;;
4.458126;49312809;88;;;;;;;;;;;;;;
4.460626;49315309;188;;;;;;;;;;;;;;
4.463126;49317809;232;;;;;;;;;;;;;;
4.465626;49320309;201;;;;;;;;49321272;187.304;876.461;115.388;-11629.42;4684.05;4552.498
4.468126;49322809;121;49321710;438.097;519.4;691.887;1021.166;1666.474;2202.443;;;;;;;
4.470626;49325309;38;;;;;;;;;;;;;;
4.47116;49325843;43;;;;;;;;;;;;;;
4.473126;49327809;17;;;;;;;;;;;;;;
4.47366;49328343;119;;;;;;;;;;;;;;
4.475626;49330309;29;;;;;;;;;;;;;;
4.47616;49330843;200;;;;;;;;;;;;;;
4.478126;49332809;109;;;;;;;;;;;;;;
4.480626;49335309;205;;;;;;;;;;;;;;
4.487073;49341756;251;;;;;;;;;;;;;;
4.489573;49344256;221;;;;;;;;;;;;;;
4.492073;49346756;151;;;;;;;;;;;;;;
4.494573;49349256;64;;;;;;;;;;;;;;
4.497073;49351756;33;;;;;;;;;;;;;;
4.499573;49354256;63;;;;;;;;;;;;;;
4.502073;49356756;151;;;;;;;;;;;;;;
4.504573;49359256;249;;;;;;;;;;;;;;
4.507073;49361756;295;49362244;437.347;521.374;690.232;5923.483;1472.463;2364.884;49361805;187.095;878.717;115.767;-3963.512;6225.66;3557.061
4.509573;49364256;269;;;;;;;;;;;;;;
4.512073;49366756;190;;;;;;;;;;;;;;
4.514573;49369256;119;;;;;;;;;;;;;;
4.517073;49371756;88;;;;;;;;;;;;;;
4.522998;49377681;123;;;;;;;;;;;;;;
4.525498;49380181;217;;;;;;;;;;;;;;
4.527998;49382681;316;;;;;;;;;;;;;;
4.530498;49385181;375;;;;;;;;;;;;;;
4.532998;49387681;359;;;;;;;;;;;;;;
4.535498;49390181;296;;;;;;;;;;;;;;
4.537998;49392681;223;49393749;436.433;518.443;686.477;9314.996;1468.403;2498.202;49393314;186.219;889.889;106.978;4426.852;7384.376;1799.833
4.540498;49395181;203;;;;;;;;;;;;;;
4.542998;49397681;251;;;;;;;;;;;;;;
4.543246;49397929;509;;;;;;;;;;;;;;
4.545498;49400181;350;;;;;;;;;;;;;;
4.545746;49400429;493;;;;;;;;;;;;;;
4.547998;49402681;454;;;;;;;;;;;;;;
4.548246;49402929;432;;;;;;;;;;;;;;
4.550746;49405429;375;;;;;;;;;;;;;;
4.553246;49407929;349;;;;;;;;;;;;;;
4.555746;49410429;396;;;;;;;;;;;;;;
4.558246;49412929;495;;;;;;;;;;;;;;
4.560746;49415429;606;;;;;;;;;;;;;;
4.563246;49417929;665;;;;;;;;;;;;;;
4.565746;49420429;654;;;;;;;;;;;;;;
4.568246;49422929;600;49422400;439.42;530.133;692.669;12094.621;1468.045;2498.854;49421961;184.203;893.383;97.902;10954.384;8175.408;-164.409
4.570746;49425429;538;;;;;;;;;;;;;;
4.573246;49427929;523;;;;;;;;;;;;;;
4.575746;49430429;573;;;;;;;;;;;;;;
4.578246;49432929;671;;;;;;;;;;;;;;
4.583796;49438479;778;;;;;;;;;;;;;;
4.586296;49440979;839;;;;;;;;;;;;;;
4.588796;49443479;824;;;;;;;;;;;;;;
4.591296;49445979;764;;;;;;;;;;;;;;
4.593796;49448479;701;;;;;;;;;;;;;;
4.596296;49450979;686;;;;;;;;;;;;;;
4.598796;49453479;734;;;;;;;;;;;;;;
4.601296;49455979;839;;;;;;;;49456935;180.63;892.463;93.08;15410.789;8678.387;-1964.376
4.603796;49458479;936;49457371;440.068;540.092;688.658;13915.39;1371.018;2502.099;;;;;;;
4.606296;49460979;984;;;;;;;;;;;;;;
4.608796;49463479;967;;;;;;;;;;;;;;
4.611296;49465979;895;;;;;;;;;;;;;;
4.613796;49468479;825;;;;;;;;;;;;;;
4.616243;49470926;797;;;;;;;;;;;;;;
4.618743;49473426;840;;;;;;;;;;;;;;
4.621243;49475926;922;;;;;;;;;;;;;;
4.623743;49478426;1017;;;;;;;;;;;;;;
4.626243;49480926;1055;;;;;;;;;;;;;;
4.628743;49483426;1038;;;;;;;;;;;;;;
4.631243;49485926;966;;;;;;;;;;;;;;
4.633743;49488426;891;49489316;440.055;548.041;686.347;15155.995;1104.717;2509.119;49488878;179.937;891.443;82.094;19434.812;8846.029;-3181.72
4.636243;49490926;858;;;;;;;;;;;;;;
4.638743;49493426;892;;;;;;;;;;;;;;
4.641243;49495926;975;;;;;;;;;;;;;;
4.643743;49498426;1068;;;;;;;;;;;;;;
4.644895;49499578;1102;;;;;;;;;;;;;;
4.647395;49502078;1066;;;;;;;;;;;;;;
4.649895;49504578;983;;;;;;;;;;;;;;
4.652395;49507078;893;;;;;;;;;;;;;;
4.654895;49509578;845;;;;;;;;;;;;;;
4.657395;49512078;862;;;;;;;;;;;;;;
4.659895;49514578;927;;;;;;;;;;;;;;
4.662395;49517078;1000;;;;;;;;;;;;;;
4.664895;49519578;1022;49520049;441.818;560.77;686.715;16580.008;540.231;2678.538;49519607;175.771;897.842;69.626;23758.572;9001.353;-4023.196
4.667395;49522078;985;;;;;;;;;;;;;;
4.669895;49524578;893;;;;;;;;;;;;;;
4.672395;49527078;808;;;;;;;;;;;;;;
4.674895;49529578;765;;;;;;;;;;;;;;
4.677491;49532174;791;;;;;;;;;;;;;;
4.679991;49534674;860;;;;;;;;;;;;;;
4.682491;49537174;935;;;;;;;;;;;;;;
4.684991;49539674;958;;;;;;;;;;;;;;
4.687491;49542174;920;;;;;;;;;;;;;;
4.689991;49544674;822;;;;;;;;;;;;;;
4.692491;49547174;735;;;;;;;;;;;;;;
4.694991;49549674;696;;;;;;;;;;;;;;
4.697491;49552174;716;49552247;443.145;567.148;681.201;17643.195;77.907;2784.799;49551809;173.803;907.191;58.929;27631.205;8738.098;-5021.224
4.699991;49554674;792;;;;;;;;;;;;;;
4.702491;49557174;863;;;;;;;;;;;;;;
4.704991;49559674;891;;;;;;;;;;;;;;
4.707491;49562174;856;;;;;;;;;;;;;;
4.70994;49564623;766;;;;;;;;;;;;;;
4.71244;49567123;682;;;;;;;;;;;;;;
4.71494;49569623;639;;;;;;;;;;;;;;
4.71744;49572123;667;;;;;;;;;;;;;;
4.71994;49574623;745;;;;;;;;;;;;;;
4.72244;49577123;827;;;;;;;;;;;;;;
4.72494;49579623;857;;;;;;;;;;;;;;
4.72744;49582123;823;;;;;;;;;;;;;;
4.72994;49584623;735;49584008;445.833;574.36;677.458;18198.223;-118.051;2724.746;49583573;170.584;909.113;45.783;31465.52;8704.567;-6241.038
4.73244;49587123;651;;;;;;;;;;;;;;
4.73494;49589623;619;;;;;;;;;;;;;;
4.73744;49592123;649;;;;;;;;;;;;;;
4.73994;49594623;729;;;;;;;;;;;;;;
4.746314;49600997;845;;;;;;;;;;;;;;
4.748814;49603497;813;;;;;;;;;;;;;;
4.751314;49605997;730;;;;;;;;;;;;;;
4.753814;49608497;652;;;;;;;;;;;;;;
4.756314;49610997;618;;;;;;;;;;;;;;
4.758814;49613497;653;;;;;;;;;;;;;;
4.761314;49615997;743;49615954;448.033;582.138;673.933;18858.061;-326.086;2635.321;49615516;166.801;909.572;31.367;35457.68;8725.214;-7188.548
4.763814;49618497;827;;;;;;;;;;;;;;
4.766314;49620997;862;;;;;;;;;;;;;;
4.768814;49623497;841;;;;;;;;;;;;;;
4.770373;49625056;810;;;;;;;;;;;;;;
4.771314;49625997;764;;;;;;;;;;;;;;
4.773814;49628497;686;;;;;;;;;;;;;;
4.774809;49629492;653;;;;;;;;;;;;;;
4.777309;49631992;699;;;;;;;;;;;;;;
4.779809;49634492;781;;;;;;;;;;;;;;
4.782309;49636992;873;;;;;;;;;;;;;;
4.784809;49639492;907;;;;;;;;;;;;;;
4.787309;49641992;876;;;;;;;;;;;;;;
4.789809;49644492;798;;;;;;;;;;;;;;
4.792309;49646992;720;49647889;449.208;589.704;669.37;20149.471;-541.657;2630.43;49647450;165.421;911.582;14.134;38254.047;8479.703;-7967.058
4.794809;49649492;687;;;;;;;;;;;;;;
4.797309;49651992;729;;;;;;;;;;;;;;
4.799809;49654492;814;;;;;;;;;;;;;;
4.802309;49656992;906;;;;;;;;;;;;;;
4.803203;49657886;941;;;;;;;;;;;;;;
4.805703;49660386;919;;;;;;;;;;;;;;
4.808203;49662886;842;;;;;;;;;;;;;;
4.810703;49665386;764;;;;;;;;;;;;;;
4.813203;49667886;743;;;;;;;;;;;;;;
4.815703;49670386;781;;;;;;;;;;;;;;
4.818203;49672886;863;;;;;;;;;;;;;;
4.820703;49675386;955;;;;;;;;;;;;;;
4.823203;49677886;990;49678281;449.811;595.074;661.393;20990.871;-840.511;2641.971;49677839;161.389;908.532;-6.251;41269.781;8359.78;-8675.143
4.825703;49680386;957;;;;;;;;;;;;;;
4.828203;49682886;874;;;;;;;;;;;;;;
4.830703;49685386;797;;;;;;;;;;;;;;
4.833203;49687886;764;;;;;;;;;;;;;;
4.847873;49702556;1001;;;;;;;;;;;;;;
4.850373;49705056;966;;;;;;;;;;;;;;
4.852873;49707556;878;;;;;;;;;;;;;;
4.855373;49710056;799;49710215;451.318;598.547;649.625;21666.828;-1043.048;2641.56;49709776;154.961;911.991;-32.266;45270.918;8486.041;-9164.948
4.857873;49712556;775;;;;;;;;;;;;;;
4.859809;49714492;798;;;;;;;;;;;;;;
4.860373;49715056;808;;;;;;;;;;;;;;
4.862309;49716992;880;;;;;;;;;;;;;;
4.862873;49717556;879;;;;;;;;;;;;;;
4.864809;49719492;960;;;;;;;;;;;;;;
4.865373;49720056;968;;;;;;;;;;;;;;
4.867873;49722556;992;;;;;;;;;;;;;;
4.868518;49723201;871;;;;;;;;;;;;;;
4.870373;49725056;954;;;;;;;;;;;;;;
4.871018;49725701;782;;;;;;;;;;;;;;
4.873518;49728201;746;;;;;;;;;;;;;;
4.876018;49730701;778;;;;;;;;;;;;;;
4.878518;49733201;860;;;;;;;;;;;;;;
4.881018;49735701;936;;;;;;;;;;;;;;
4.883518;49738201;968;;;;;;;;;;;;;;
4.886018;49740701;924;;;;;;;;;;;;;;
4.888518;49743201;846;49742412;453.232;612.625;647.723;22355.361;-1327.771;2516.044;49741974;151.788;914.301;-53.845;47999.684;8171.989;-9408.451
4.891018;49745701;763;;;;;;;;;;;;;;
4.893518;49748201;730;;;;;;;;;;;;;;
4.896018;49750701;764;;;;;;;;;;;;;;
4.898518;49753201;844;;;;;;;;;;;;;;
4.901236;49755919;927;;;;;;;;;;;;;;
4.903736;49758419;959;;;;;;;;;;;;;;
4.906236;49760919;923;;;;;;;;;;;;;;
4.908736;49763419;840;;;;;;;;;;;;;;
4.911236;49765919;750;;;;;;;;;;;;;;
4.913736;49768419;715;;;;;;;;;;;;;;
4.916236;49770919;745;;;;;;;;;;;;;;
4.918736;49773419;827;49774527;452.469;616.789;636.76;22879.531;-1407.507;2382.367;49774091;147.95;916.044;-75.62;52349.012;8051.702;-10195.403
4.921236;49775919;906;;;;;;;;;;;;;;
4.923736;49778419;937;;;;;;;;;;;;;;
4.926236;49780919;892;;;;;;;;;;;;;;
4.928736;49783419;809;;;;;;;;;;;;;;
4.931236;49785919;727;;;;;;;;;;;;;;
4.950033;49804716;893;;;;;;;;;;;;;;
4.952533;49807216;856;49806733;453.001;628.051;630.188;23605.867;-1601.382;2341.124;49806294;145.237;904.773;-95.147;54125.809;7901.992;-10641.133
4.953885;49808568;686;;;;;;;;;;;;;;
4.955033;49809716;752;;;;;;;;;;;;;;
4.956385;49811068;716;;;;;;;;;;;;;;
4.957533;49812216;666;;;;;;;;;;;;;;
4.958885;49813568;794;;;;;;;;;;;;;;
4.960033;49814716;633;;;;;;;;;;;;;;
4.961385;49816068;875;;;;;;;;;;;;;;
4.962533;49817216;654;;;;;;;;;;;;;;
4.962692;49817375;824;;;;;;;;;;;;;;
4.965033;49819716;729;;;;;;;;;;;;;;
4.965192;49819875;776;;;;;;;;;;;;;;
4.967533;49822216;799;;;;;;;;;;;;;;
4.967692;49822375;683;;;;;;;;;;;;;;
4.970192;49824875;591;;;;;;;;;;;;;;
4.972692;49827375;556;;;;;;;;;;;;;;
4.975192;49829875;584;;;;;;;;;;;;;;
4.977692;49832375;664;;;;;;;;;;;;;;
4.980192;49834875;729;;;;;;;;;;;;;;
4.982692;49837375;745;49837370;454.196;626.435;614.563;23553.449;-1582.563;2110.755;49836931;140.714;902.424;-123.409;57049.266;7929.08;-11574.701
4.985192;49839875;700;;;;;;;;;;;;;;
4.987692;49842375;590;;;;;;;;;;;;;;
4.990192;49844875;508;;;;;;;;;;;;;;
4.992692;49847375;480;;;;;;;;;;;;;;
4.995443;49850126;511;;;;;;;;;;;;;;
4.997943;49852626;591;;;;;;;;;;;;;;
5.000443;49855126;669;;;;;;;;;;;;;;
5.002943;49857626;697;;;;;;;;;;;;;;
5.005443;49860126;651;;;;;;;;;;;;;;
5.007943;49862626;572;;;;;;;;;;;;;;
5.010443;49865126;491;;;;;;;;;;;;;;
5.012943;49867626;461;;;;;;;;;;;;;;
5.015443;49870126;505;49869674;454.27;628.596;600.842;25468.902;-1394.497;1994.717;49869225;134.868;904.334;-150.124;59030.301;7971.875;-12969.966
5.017943;49872626;585;;;;;;;;;;;;;;
5.020443;49875126;669;;;;;;;;;;;;;;
5.022943;49877626;699;;;;;;;;;;;;;;
5.025443;49880126;666;;;;;;;;;;;;;;
5.044233;49898916;587;;;;;;;;;;;;;;
5.046733;49901416;509;49901948;454.687;637.725;592.68;26892.645;-1288.022;2101.481;49901510;129.039;895.54;-176.119;60638.41;8406.719;-14342.28
5.049233;49903916;489;;;;;;;;;;;;;;
5.051733;49906416;527;;;;;;;;;;;;;;
5.052459;49907142;719;;;;;;;;;;;;;;
5.054233;49908916;619;;;;;;;;;;;;;;
5.054959;49909642;702;;;;;;;;;;;;;;
5.056733;49911416;702;;;;;;;;;;;;;;
5.057459;49912142;633;;;;;;;;;;;;;;
5.059959;49914642;566;;;;;;;;;;;;;;
5.060919;49915602;751;;;;;;;;;;;;;;
5.062459;49917142;539;;;;;;;;;;;;;;
5.063419;49918102;782;;;;;;;;;;;;;;
5.064959;49919642;585;;;;;;;;;;;;;;
5.065919;49920602;751;;;;;;;;;;;;;;
5.067459;49922142;668;;;;;;;;;;;;;;
5.068419;49923102;679;;;;;;;;;;;;;;
5.070919;49925602;604;;;;;;;;;;;;;;
5.073419;49928102;584;;;;;;;;;;;;;;
5.075919;49930602;621;;;;;;;;;;;;;;
5.078419;49933102;717;49934232;456.115;640.078;576.741;28128.387;-880.621;2062.47;49933794;122.02;885.838;-204.968;61883.488;8517.945;-15653.416
5.080919;49935602;810;;;;;;;;;;;;;;
5.083419;49938102;827;;;;;;;;;;;;;;
5.085919;49940602;793;;;;;;;;;;;;;;
5.088419;49943102;711;;;;;;;;;;;;;;
5.090919;49945602;636;;;;;;;;;;;;;;
5.093694;49948377;606;;;;;;;;;;;;;;
5.096194;49950877;648;;;;;;;;;;;;;;
5.098694;49953377;733;;;;;;;;;;;;;;
5.101194;49955877;812;;;;;;;;;;;;;;
5.103694;49958377;842;;;;;;;;;;;;;;
5.106194;49960877;799;;;;;;;;;;;;;;
5.108694;49963377;718;;;;;;;;;;;;;;
5.111194;49965877;647;49966433;457.923;648.109;568.18;29707.467;-564.028;2086.221;49965998;118.072;876.511;-232.515;63534.438;8635.86;-17346.559
5.113694;49968377;617;;;;;;;;;;;;;;
5.116194;49970877;654;;;;;;;;;;;;;;
5.118694;49973377;743;;;;;;;;;;;;;;
5.121194;49975877;824;;;;;;;;;;;;;;
5.138275;49992958;855;;;;;;;;;;;;;;
5.140775;49995458;810;;;;;;;;49996644;111.833;866.864;-257.252;64201.152;8909.317;-18685.105
5.143275;49997958;730;49997082;459.628;662.179;562.14;31019.469;-430.826;2149.473;;;;;;;
5.145775;50000458;652;;;;;;;;;;;;;;
5.148275;50002958;631;;;;;;;;;;;;;;
5.150441;50005124;860;;;;;;;;;;;;;;
5.150775;50005458;667;;;;;;;;;;;;;;
5.152941;50007624;825;;;;;;;;;;;;;;
5.153275;50007958;759;;;;;;;;;;;;;;
5.155441;50010124;734;;;;;;;;;;;;;;
5.157941;50012624;665;;;;;;;;;;;;;;
5.160441;50015124;636;;;;;;;;;;;;;;
5.162941;50017624;681;;;;;;;;;;;;;;
5.165441;50020124;763;50019901;459.375;674.472;553.492;31243.869;289.403;1904.187;50019466;107.279;858.163;-282.856;64323.094;8956.039;-19745.412
5.167941;50022624;843;;;;;;;;;;;;;;
5.170441;50025124;871;;;;;;;;;;;;;;
5.172941;50027624;827;;;;;;;;;;;;;;
5.1745;50029183;840;;;;;;;;;;;;;;
5.175441;50030124;745;;;;;;;;;;;;;;
5.177941;50032624;665;;;;;;;;;;;;;;
5.179112;50033795;638;;;;;;;;;;;;;;
5.181612;50036295;680;;;;;;;;;;;;;;
5.184112;50038795;764;;;;;;;;;;;;;;
5.186612;50041295;843;;;;;;;;;;;;;;
5.189112;50043795;872;;;;;;;;;;;;;;
5.191612;50046295;828;;;;;;;;;;;;;;
5.194112;50048795;746;;;;;;;;;;;;;;
5.196612;50051295;671;50052015;461.514;682.15;544.398;30776.301;962.245;1776.602;50051576;102.421;849.982;-308.613;62678.438;9162.737;-20435.516
5.199112;50053795;651;;;;;;;;;;;;;;
5.201612;50056295;687;;;;;;;;;;;;;;
5.204112;50058795;777;;;;;;;;;;;;;;
5.206612;50061295;861;;;;;;;;;;;;;;
5.207695;50062378;892;;;;;;;;;;;;;;
5.210195;50064878;857;;;;;;;;;;;;;;
5.212695;50067378;777;;;;;;;;;;;;;;
5.215195;50069878;701;;;;;;;;;;;;;;
5.217695;50072378;685;;;;;;;;;;;;;;
5.220195;50074878;732;;;;;;;;;;;;;;
5.222695;50077378;826;;;;;;;;;;;;;;
5.225195;50079878;911;;;;;;;;;;;;;;
5.227695;50082378;942;50082571;462.082;688.79;535.429;30215.736;1446.57;1728.022;50082136;97.611;835.793;-334.199;60332.453;9342.913;-20892.49
5.230195;50084878;909;;;;;;;;;;;;;;
5.232695;50087378;830;;;;;;;;;;;;;;
5.235195;50089878;775;;;;;;;;;;;;;;
5.237695;50092378;759;;;;;;;;;;;;;;
5.252343;50107026;1021;;;;;;;;;;;;;;
5.254843;50109526;991;;;;;;;;;;;;;;
5.257343;50112026;923;;;;;;;;;;;;;;
5.259843;50114526;858;50114691;462.42;694.678;525.658;29711.199;1778.054;1589.121;50114252;94.036;820.258;-358.414;58074.453;9546.893;-21050.99
5.262343;50117026;846;;;;;;;;;;;;;;
5.264289;50118972;809;;;;;;;;;;;;;;
5.264843;50119526;906;;;;;;;;;;;;;;
5.266789;50121472;903;;;;;;;;;;;;;;
5.267343;50122026;1004;;;;;;;;;;;;;;
5.269289;50123972;998;;;;;;;;;;;;;;
5.269843;50124526;1096;;;;;;;;;;;;;;
5.272343;50127026;1131;;;;;;;;;;;;;;
5.273426;50128109;1023;;;;;;;;;;;;;;
5.274843;50129526;1102;;;;;;;;;;;;;;
5.275926;50130609;968;;;;;;;;;;;;;;
5.278426;50133109;966;;;;;;;;;;;;;;
5.280926;50135609;1018;;;;;;;;;;;;;;
5.283426;50138109;1118;;;;;;;;;;;;;;
5.285926;50140609;1211;;;;;;;;;;;;;;
5.288426;50143109;1245;;;;;;;;;;;;;;
5.290926;50145609;1211;;;;;;;;50146795;86.675;808.342;-379.637;55711.043;10048.235;-20756.629
5.293426;50148109;1146;50147234;471.458;710.464;535.06;29498.326;2276.714;1213.915;;;;;;;
5.295926;50150609;1085;;;;;;;;;;;;;;
5.298426;50153109;1081;;;;;;;;;;;;;;
5.300926;50155609;1134;;;;;;;;;;;;;;
5.303426;50158109;1241;;;;;;;;;;;;;;
5.307106;50161789;1326;;;;;;;;;;;;;;
5.309606;50164289;1368;;;;;;;;;;;;;;
5.312106;50166789;1337;;;;;;;;;;;;;;
5.314606;50169289;1261;;;;;;;;;;;;;;
5.317106;50171789;1208;;;;;;;;;;;;;;
5.319606;50174289;1198;;;;;;;;;;;;;;
5.322106;50176789;1258;;;;;;;;;;;;;;
5.324606;50179289;1358;50180399;471.511;714.511;523.99;28723.41;2548.753;1256.907;50179957;82.865;794.112;-402.775;53381.363;10203.386;-20389.047
5.327106;50181789;1448;;;;;;;;;;;;;;
5.329606;50184289;1486;;;;;;;;;;;;;;
5.332106;50186789;1452;;;;;;;;;;;;;;
5.334606;50189289;1384;;;;;;;;;;;;;;
5.337106;50191789;1322;;;;;;;;;;;;;;
5.357375;50212058;1598;;;;;;;;50213283;79.058;781.472;-422.945;51055.293;10164.404;-19930.469
5.359875;50214558;1564;50213722;471.054;720.778;513.437;27869.99;2694.316;1277.186;;;;;;;
5.360882;50215565;1310;;;;;;;;;;;;;;
5.362375;50217058;1486;;;;;;;;;;;;;;
5.363382;50218065;1372;;;;;;;;;;;;;;
5.364875;50219558;1422;;;;;;;;;;;;;;
5.365882;50220565;1478;;;;;;;;;;;;;;
5.367375;50222058;1418;;;;;;;;;;;;;;
5.368382;50223065;1565;;;;;;;;;;;;;;
5.369875;50224558;1470;;;;;;;;;;;;;;
5.370594;50225277;1694;;;;;;;;;;;;;;
5.372375;50227058;1579;;;;;;;;;;;;;;
5.373094;50227777;1661;;;;;;;;;;;;;;
5.374875;50229558;1670;;;;;;;;;;;;;;
5.375594;50230277;1591;;;;;;;;;;;;;;
5.378094;50232777;1517;;;;;;;;;;;;;;
5.380594;50235277;1511;;;;;;;;;;;;;;
5.383094;50237777;1566;;;;;;;;;;;;;;
5.385594;50240277;1672;;;;;;;;;;;;;;
5.388094;50242777;1757;;;;;;;;;;;;;;
5.390594;50245277;1790;50245403;470.639;728.086;503.833;26384.178;2899.1;1260.139;50244965;74.928;770.519;-442.686;48572.965;10268.246;-19203.883
5.393094;50247777;1744;;;;;;;;;;;;;;
5.395594;50250277;1662;;;;;;;;;;;;;;
5.398094;50252777;1598;;;;;;;;;;;;;;
5.400594;50255277;1583;;;;;;;;;;;;;;
5.404446;50259129;1641;;;;;;;;;;;;;;
5.406946;50261629;1741;;;;;;;;;;;;;;
5.409446;50264129;1821;;;;;;;;;;;;;;
5.411946;50266629;1852;;;;;;;;;;;;;;
5.414446;50269129;1807;;;;;;;;;;;;;;
5.416946;50271629;1723;;;;;;;;;;;;;;
5.419446;50274129;1656;;;;;;;;;;;;;;
5.421946;50276629;1640;;;;;;;;;;;;;;
5.424446;50279129;1692;50278733;470.897;732.326;494.55;24543.469;3139.145;1334.507;50278297;71.584;759.163;-463.222;45726.504;10257.521;-18238.0
5.426946;50281629;1789;;;;;;;;;;;;;;
5.429446;50284129;1879;;;;;;;;;;;;;;
5.431946;50286629;1899;;;;;;;;;;;;;;
5.434446;50289129;1853;;;;;;;;;;;;;;
5.447023;50301706;1944;;;;;;;;;;;;;;
5.449523;50304206;1900;;;;;;;;;;;;;;
5.452023;50306706;1807;;;;;;;;;;;;;;
5.454235;50308918;1772;;;;;;;;;;;;;;
5.454523;50309206;1740;;;;;;;;;;;;;;
5.456735;50311418;1702;;;;;;;;;;;;;;
5.457023;50311706;1726;50312067;470.068;735.988;485.426;22716.92;3253.875;1417.845;50311629;67.865;747.77;-482.065;42851.742;10106.458;-17148.037
5.459235;50313918;1678;;;;;;;;;;;;;;
5.459523;50314206;1784;;;;;;;;;;;;;;
5.461735;50316418;1737;;;;;;;;;;;;;;
5.462023;50316706;1880;;;;;;;;;;;;;;
5.464235;50318918;1834;;;;;;;;;;;;;;
5.464523;50319206;1965;;;;;;;;;;;;;;
5.466735;50321418;1916;;;;;;;;;;;;;;
5.467023;50321706;1995;;;;;;;;;;;;;;
5.469523;50324206;1950;;;;;;;;;;;;;;
5.472023;50326706;1868;;;;;;;;;;;;;;
5.474523;50329206;1803;;;;;;;;;;;;;;
5.477023;50331706;1786;;;;;;;;;;;;;;
5.480967;50335650;1839;;;;;;;;;;;;;;
5.483467;50338150;1944;;;;;;;;;;;;;;
5.485967;50340650;2029;;;;;;;;;;;;;;
5.488467;50343150;2060;;;;;;;;;;;;;;
5.490967;50345650;2013;;;;;;;;;;;;;;
5.493467;50348150;1930;;;;;;;;;;;;;;
5.495967;50350650;1865;;;;;;;;;;;;;;
5.498467;50353150;1849;;;;;;;;;;;;;;
5.500967;50355650;1911;50355287;470.483;736.277;474.105;20746.324;3524.744;1397.265;50354849;62.245;737.27;-498.204;39961.031;10199.197;-16199.635
5.503467;50358150;2009;;;;;;;;;;;;;;
5.505967;50360650;2095;;;;;;;;;;;;;;
5.508467;50363150;2122;;;;;;;;;;;;;;
5.510967;50365650;2076;;;;;;;;;;;;;;
5.514823;50369506;1992;;;;;;;;;;;;;;
5.517323;50372006;1917;;;;;;;;;;;;;;
5.519823;50374506;1913;;;;;;;;;;;;;;
5.522323;50377006;1964;;;;;;;;;;;;;;
5.524823;50379506;2064;;;;;;;;;;;;;;
5.527323;50382006;2157;;;;;;;;;;;;;;
5.529823;50384506;2188;;;;;;;;;;;;;;
5.532323;50387006;2142;;;;;;;;50388184;59.785;735.5;-512.925;36244.918;10114.925;-15022.591
5.534823;50389506;2060;50388626;470.56;740.717;467.81;18842.32;3959.694;1580.277;;;;;;;
5.537323;50392006;1994;;;;;;;;;;;;;;
5.539823;50394506;1978;;;;;;;;;;;;;;
5.542323;50397006;2043;;;;;;;;;;;;;;
5.544823;50399506;2151;;;;;;;;;;;;;;
5.552574;50407257;2266;;;;;;;;;;;;;;
5.555074;50409757;2222;;;;;;;;;;;;;;
5.557574;50412257;2138;;;;;;;;;;;;;;
5.560074;50414757;2064;;;;;;;;;;;;;;
5.562574;50417257;2058;;;;;;;;;;;;;;
5.565074;50419757;2120;;;;;;;;;;;;;;
5.567574;50422257;2222;50421949;471.365;745.765;464.238;16282.766;4338.334;1817.138;50421510;58.425;739.083;-525.013;30516.172;9827.054;-13901.773
5.570074;50424757;2314;;;;;;;;;;;;;;
5.572574;50427257;2332;;;;;;;;;;;;;;
5.575074;50429757;2294;;;;;;;;;;;;;;
5.576547;50431230;2238;;;;;;;;;;;;;;
5.577574;50432257;2205;;;;;;;;;;;;;;
5.580074;50434757;2137;;;;;;;;;;;;;;
5.582303;50436986;2125;;;;;;;;;;;;;;
5.584803;50439486;2186;;;;;;;;;;;;;;
5.587303;50441986;2287;;;;;;;;;;;;;;
5.589803;50444486;2375;;;;;;;;;;;;;;
5.592303;50446986;2394;;;;;;;;;;;;;;
5.594803;50449486;2346;;;;;;;;;;;;;;
5.597303;50451986;2252;;;;;;;;;;;;;;
5.599803;50454486;2185;50455187;471.672;753.477;462.553;13175.252;5063.792;1966.031;50454749;55.473;754.259;-547.593;22069.988;9536.951;-12378.935
5.602303;50456986;2168;;;;;;;;;;;;;;
5.604803;50459486;2217;;;;;;;;;;;;;;
5.607303;50461986;2315;;;;;;;;;;;;;;
5.609803;50464486;2394;;;;;;;;;;;;;;
5.611819;50466502;2413;;;;;;;;;;;;;;
5.614319;50469002;2365;;;;;;;;;;;;;;
5.616819;50471502;2280;;;;;;;;;;;;;;
5.619319;50474002;2204;;;;;;;;;;;;;;
5.621819;50476502;2199;;;;;;;;;;;;;;
5.624319;50479002;2250;;;;;;;;;;;;;;
5.626819;50481502;2348;;;;;;;;;;;;;;
5.629319;50484002;2429;;;;;;;;;;;;;;
5.631819;50486502;2441;50486786;470.262;761.473;462.587;8025.989;5703.978;1903.167;50486350;56.164;756.038;-557.796;11145.926;8276.104;-10448.362
5.634319;50489002;2395;;;;;;;;;;;;;;
5.636819;50491502;2312;;;;;;;;;;;;;;
5.639319;50494002;2235;;;;;;;;;;;;;;
5.641819;50496502;2220;;;;;;;;;;;;;;
5.657512;50512195;2476;;;;;;;;;;;;;;
5.660012;50514695;2428;;;;;;;;;;;;;;
5.662512;50517195;2343;;;;;;;;;;;;;;
5.665012;50519695;2269;50519947;468.16;761.769;457.91;3592.252;5972.216;1569.134;50519508;53.197;752.853;-565.323;238.691;6789.548;-8356.194
5.667512;50522195;2254;;;;;;;;;;;;;;
5.669171;50523854;2281;;;;;;;;;;;;;;
5.670012;50524695;2317;;;;;;;;;;;;;;
5.671671;50526354;2378;;;;;;;;;;;;;;
5.672512;50527195;2415;;;;;;;;;;;;;;
5.674171;50528854;2459;;;;;;;;;;;;;;
5.675012;50529695;2494;;;;;;;;;;;;;;
5.677512;50532195;2520;;;;;;;;;;;;;;
5.678695;50533378;2390;;;;;;;;;;;;;;
5.680012;50534695;2473;;;;;;;;;;;;;;
5.681195;50535878;2318;;;;;;;;;;;;;;
5.683695;50538378;2314;;;;;;;;;;;;;;
5.686195;50540878;2375;;;;;;;;;;;;;;
5.688695;50543378;2475;;;;;;;;;;;;;;
5.691195;50545878;2555;;;;;;;;;;;;;;
5.693695;50548378;2583;;;;;;;;;;;;;;
5.696195;50550878;2537;;;;;;;;;;;;;;
5.698695;50553378;2456;50552836;470.091;758.713;457.408;-26.11;5691.105;1100.864;50552397;53.728;751.945;-566.843;-8975.181;5229.446;-6380.447
5.701195;50555878;2394;;;;;;;;;;;;;;
5.703695;50558378;2393;;;;;;;;;;;;;;
5.706195;50560878;2456;;;;;;;;;;;;;;
5.708695;50563378;2556;;;;;;;;;;;;;;
5.712361;50567044;2638;;;;;;;;;;;;;;
5.714861;50569544;2665;;;;;;;;;;;;;;
5.717361;50572044;2618;;;;;;;;;;;;;;
5.719861;50574544;2536;;;;;;;;;;;;;;
5.722361;50577044;2474;;;;;;;;;;;;;;
5.724861;50579544;2463;;;;;;;;;;;;;;
5.727361;50582044;2525;;;;;;;;;;;;;;
5.729861;50584544;2623;;;;;;;;50585385;53.982;755.303;-564.749;-15781.047;3655.036;-4915.174
5.732361;50587044;2703;50585827;467.339;759.372;457.992;-2209.68;5406.988;501.571;;;;;;;
5.734861;50589544;2728;;;;;;;;;;;;;;
5.737361;50592044;2683;;;;;;;;;;;;;;
5.739861;50594544;2616;;;;;;;;;;;;;;
5.742361;50597044;2559;;;;;;;;;;;;;;
5.746559;50601242;2840;;;;;;;;;;;;;;
5.749059;50603742;2781;;;;;;;;;;;;;;
5.751559;50606242;2698;;;;;;;;;;;;;;
5.754059;50608742;2631;;;;;;;;;;;;;;
5.756559;50611242;2621;;;;;;;;;;;;;;
5.759059;50613742;2686;;;;;;;;;;;;;;
5.761559;50616242;2793;;;;;;;;;;;;;;
5.764059;50618742;2872;50618976;464.98;762.383;459.858;-3987.883;5075.388;-104.945;50618538;48.885;759.17;-557.258;-21125.307;1860.534;-3392.791
5.766057;50620740;2573;;;;;;;;;;;;;;
5.766559;50621242;2905;;;;;;;;;;;;;;
5.768557;50623240;2639;;;;;;;;;;;;;;
5.769059;50623742;2862;;;;;;;;;;;;;;
5.771057;50625740;2748;;;;;;;;;;;;;;
5.771559;50626242;2794;;;;;;;;;;;;;;
5.773557;50628240;2826;;;;;;;;;;;;;;
5.774059;50628742;2744;;;;;;;;;;;;;;
5.776559;50631242;2752;;;;;;;;;;;;;;
5.779059;50633742;2825;;;;;;;;;;;;;;
5.781559;50636242;2927;;;;;;;;;;;;;;
5.788633;50643316;3017;;;;;;;;;;;;;;
5.791133;50645816;3032;;;;;;;;;;;;;;
5.793633;50648316;2989;;;;;;;;;;;;;;
5.796133;50650816;2911;;;;;;;;;;;;;;
5.798633;50653316;2856;;;;;;;;;;;;;;
5.801133;50655816;2848;;;;;;;;;;;;;;
5.803633;50658316;2910;;;;;;;;;;;;;;
5.806133;50660816;3005;;;;;;;;50661674;50.15;771.488;-545.194;-25711.041;353.945;-1937.338
5.808633;50663316;3079;50662112;465.192;765.811;470.464;-6035.489;4808.494;-840.385;;;;;;;
5.811133;50665816;3082;;;;;;;;;;;;;;
5.813633;50668316;3019;;;;;;;;;;;;;;
5.816133;50670816;2934;;;;;;;;;;;;;;
5.818633;50673316;2859;;;;;;;;;;;;;;
5.822487;50677170;2847;;;;;;;;;;;;;;
5.824987;50679670;2893;;;;;;;;;;;;;;
5.827487;50682170;2999;;;;;;;;;;;;;;
5.829987;50684670;3065;;;;;;;;;;;;;;
5.832487;50687170;3070;;;;;;;;;;;;;;
5.834987;50689670;3006;;;;;;;;;;;;;;
5.837487;50692170;2937;;;;;;;;;;;;;;
5.839987;50694670;2875;50695268;462.038;765.151;471.939;-8494.34;4644.631;-1611.678;50694833;47.471;786.032;-531.616;-30276.613;-1059.377;-485.096
5.842487;50697170;2877;;;;;;;;;;;;;;
5.844987;50699670;2951;;;;;;;;;;;;;;
5.847487;50702170;3052;;;;;;;;;;;;;;
5.849987;50704670;3144;;;;;;;;;;;;;;
5.852165;50706848;3160;;;;;;;;;;;;;;
5.854665;50709348;3116;;;;;;;;;;;;;;
5.857165;50711848;3039;;;;;;;;;;;;;;
5.859665;50714348;2988;;;;;;;;;;;;;;
5.862165;50716848;3002;;;;;;;;;;;;;;
5.864665;50719348;3071;;;;;;;;;;;;;;
5.867165;50721848;3184;;;;;;;;;;;;;;
5.869665;50724348;3273;;;;;;;;;;;;;;
5.872165;50726848;3290;50726958;458.401;764.659;474.511;-10527.498;4457.462;-2394.282;50726520;44.744;797.971;-514.96;-35137.156;-2412.533;468.846
5.874665;50729348;3245;;;;;;;;;;;;;;
5.877165;50731848;3176;;;;;;;;;;;;;;
5.879665;50734348;3126;;;;;;;;;;;;;;
5.882165;50736848;3131;;;;;;;;;;;;;;
5.886075;50740758;3207;;;;;;;;;;;;;;
5.888575;50743258;3310;;;;;;;;;;;;;;
5.891075;50745758;3400;;;;;;;;;;;;;;
5.893575;50748258;3416;;;;;;;;;;;;;;
5.896075;50750758;3368;;;;;;;;;;;;;;
5.898575;50753258;3278;;;;;;;;;;;;;;
5.901075;50755758;3228;;;;;;;;;;;;;;
5.903575;50758258;3241;;;;;;;;;;;;;;
5.906075;50760758;3307;50760282;453.177;767.082;480.773;-12448.061;4057.839;-3060.755;50759846;50.955;798.155;-494.117;-40174.672;-3757.532;1775.404
5.908575;50763258;3408;;;;;;;;;;;;;;
5.911075;50765758;3484;;;;;;;;;;;;;;
5.913575;50768258;3485;;;;;;;;;;;;;;
5.916075;50770758;3431;;;;;;;;;;;;;;
5.919994;50774677;3327;;;;;;;;;;;;;;
5.922494;50777177;3257;;;;;;;;;;;;;;
5.924994;50779677;3245;;;;;;;;;;;;;;
5.927494;50782177;3293;;;;;;;;;;;;;;
5.929994;50784677;3384;;;;;;;;;;;;;;
5.932494;50787177;3438;;;;;;;;;;;;;;
5.934994;50789677;3432;;;;;;;;;;;;;;
5.937494;50792177;3354;;;;;;;;50793265;53.483;798.947;-469.466;-43715.625;-4938.155;2939.196
5.939994;50794677;3242;50793703;449.788;760.759;486.655;-15197.47;3671.635;-3749.905;;;;;;;
5.942494;50797177;3151;;;;;;;;;;;;;;
5.944994;50799677;3128;;;;;;;;;;;;;;
5.947494;50802177;3160;;;;;;;;;;;;;;
5.949994;50804677;3226;;;;;;;;;;;;;;
5.957914;50812597;3246;;;;;;;;;;;;;;
5.960414;50815097;3151;;;;;;;;;;;;;;
5.962914;50817597;3035;;;;;;;;;;;;;;
5.965414;50820097;2942;;;;;;;;;;;;;;
5.967914;50822597;2921;;;;;;;;;;;;;;
5.970414;50825097;2953;;;;;;;;;;;;;;
5.972914;50827597;3020;50827113;446.935;758.083;494.786;-17567.908;3197.115;-4331.534;50826678;55.689;806.787;-442.814;-46398.344;-6296.435;4025.549
5.975414;50830097;3065;;;;;;;;;;;;;;
5.977914;50832597;3048;;;;;;;;;;;;;;
5.980414;50835097;2958;;;;;;;;;;;;;;
5.98187;50836553;3263;;;;;;;;;;;;;;
5.982914;50837597;2845;;;;;;;;;;;;;;
5.985414;50840097;2763;;;;;;;;;;;;;;
5.987831;50842514;2734;;;;;;;;;;;;;;
5.990331;50845014;2766;;;;;;;;;;;;;;
5.992831;50847514;2841;;;;;;;;;;;;;;
5.995331;50850014;2876;;;;;;;;;;;;;;
5.997831;50852514;2857;;;;;;;;;;;;;;
6.000331;50855014;2764;;;;;;;;;;;;;;
6.002831;50857514;2646;;;;;;;;;;;;;;
6.005331;50860014;2552;50860529;443.266;750.49;498.308;-19840.824;2605.447;-4894.583;50860091;59.931;801.931;-411.67;-48973.176;-7452.488;5209.833
6.007831;50862514;2523;;;;;;;;;;;;;;
6.010331;50865014;2543;;;;;;;;;;;;;;
6.012831;50867514;2606;;;;;;;;;;;;;;
6.015331;50870014;2651;;;;;;;;;;;;;;
6.017573;50872256;2618;;;;;;;;;;;;;;
6.020073;50874756;2523;;;;;;;;;;;;;;
6.022573;50877256;2397;;;;;;;;;;;;;;
6.025073;50879756;2302;;;;;;;;;;;;;;
6.027573;50882256;2270;;;;;;;;;;;;;;
6.030073;50884756;2312;;;;;;;;;;;;;;
6.032573;50887256;2367;;;;;;;;;;;;;;
6.035073;50889756;2408;;;;;;;;;;;;;;
6.037573;50892256;2379;50892300;443.398;735.493;500.397;-20491.596;2090.175;-5022.604;50891865;69.434;796.202;-381.546;-48903.203;-7781.614;5922.779
6.040073;50894756;2284;;;;;;;;;;;;;;
6.042573;50897256;2157;;;;;;;;;;;;;;
6.045073;50899756;2059;;;;;;;;;;;;;;
6.047573;50902256;2027;;;;;;;;;;;;;;
6.047824;50902507;2136;;;;;;;;;;;;;;
6.050324;50905007;2040;;;;;;;;;;;;;;
6.052824;50907507;1913;;;;;;;;;;;;;;
6.055324;50910007;1819;;;;;;;;;;;;;;
6.057824;50912507;1790;;;;;;;;;;;;;;
6.060324;50915007;1834;;;;;;;;;;;;;;
6.062824;50917507;1900;;;;;;;;;;;;;;
6.065324;50920007;1947;;;;;;;;;;;;;;
6.067824;50922507;1929;;;;;;;;;;;;;;
6.070324;50925007;1834;50925722;441.175;725.509;507.201;-19953.953;1680.729;-5006.411;50925284;75.197;805.411;-354.911;-46922.668;-7722.846;6617.578
6.072824;50927507;1712;;;;;;;;;;;;;;
6.075324;50930007;1629;;;;;;;;;;;;;;
6.075472;50930155;2058;;;;;;;;;;;;;;
6.077824;50932507;1608;;;;;;;;;;;;;;
6.077972;50932655;2123;;;;;;;;;;;;;;
6.080324;50935007;1645;;;;;;;;;;;;;;
6.080472;50935155;2168;;;;;;;;;;;;;;
6.082824;50937507;1723;;;;;;;;;;;;;;
6.085324;50940007;1772;;;;;;;;;;;;;;
6.094304;50948987;1754;;;;;;;;;;;;;;
6.096804;50951487;1672;;;;;;;;;;;;;;
6.099304;50953987;1558;;;;;;;;;;;;;;
6.101804;50956487;1471;;;;;;;;;;;;;;
6.104304;50958987;1456;;;;;;;;;;;;;;
6.106804;50961487;1512;;;;;;;;;;;;;;
6.109304;50963987;1584;;;;;;;;;;;;;;
6.111804;50966487;1641;;;;;;;;;;;;;;
6.114304;50968987;1626;50969036;440.088;719.282;516.416;-20140.568;1302.692;-5019.027;50968590;80.929;810.354;-324.532;-45900.848;-7835.891;6681.324
6.116804;50971487;1546;;;;;;;;;;;;;;
6.119304;50973987;1435;;;;;;;;;;;;;;
6.121804;50976487;1358;;;;;;;;;;;;;;
6.124304;50978987;1353;;;;;;;;;;;;;;
6.132241;50986924;1403;;;;;;;;;;;;;;
6.134741;50989424;1483;;;;;;;;;;;;;;
6.137241;50991924;1545;;;;;;;;;;;;;;
6.139741;50994424;1532;;;;;;;;;;;;;;
6.142241;50996924;1465;;;;;;;;;;;;;;
6.144741;50999424;1368;;;;;;;;;;;;;;
6.147241;51001924;1303;51002454;439.214;712.568;526.237;-20084.664;1105.432;-4865.638;51002012;86.185;812.207;-298.454;-44240.18;-7574.909;7011.382
6.149741;51004424;1303;;;;;;;;;;;;;;
6.152241;51006924;1356;;;;;;;;;;;;;;
6.153743;51008426;1514;;;;;;;;;;;;;;
6.154741;51009424;1450;;;;;;;;;;;;;;
6.156243;51010926;1451;;;;;;;;;;;;;;
6.157241;51011924;1515;;;;;;;;;;;;;;
6.158743;51013426;1367;;;;;;;;;;;;;;
6.161243;51015926;1295;;;;;;;;;;;;;;
6.163743;51018426;1307;;;;;;;;;;;;;;
6.166243;51020926;1372;;;;;;;;;;;;;;
6.168743;51023426;1477;;;;;;;;;;;;;;
6.171243;51025926;1546;;;;;;;;;;;;;;
6.173743;51028426;1547;;;;;;;;;;;;;;
6.176243;51030926;1484;;;;;;;;51032129;91.63;824.953;-274.955;-42420.609;-7628.851;7334.125
6.178743;51033426;1403;51032567;437.359;703.45;534.195;-20047.742;830.536;-4663.919;;;;;;;
6.181243;51035926;1353;;;;;;;;;;;;;;
6.183743;51038426;1368;;;;;;;;;;;;;;
6.186243;51040926;1438;;;;;;;;;;;;;;
6.188743;51043426;1546;;;;;;;;;;;;;;
6.195899;51050582;1626;;;;;;;;;;;;;;
6.198399;51053082;1640;;;;;;;;;;;;;;
6.200899;51055582;1593;;;;;;;;;;;;;;
6.203399;51058082;1512;;;;;;;;;;;;;;
6.205899;51060582;1465;;;;;;;;;;;;;;
6.208399;51063082;1485;;;;;;;;;;;;;;
6.210899;51065582;1576;;;;;;;;;;;;;;
6.213399;51068082;1688;51069199;436.835;696.484;543.018;-19731.355;468.759;-4606.161;51068757;97.455;833.116;-249.538;-41504.016;-7686.221;7200.606
6.215899;51070582;1770;;;;;;;;;;;;;;
6.218399;51073082;1786;;;;;;;;;;;;;;
6.220899;51075582;1737;;;;;;;;;;;;;;
6.223399;51078082;1659;;;;;;;;;;;;;;
6.225899;51080582;1611;;;;;;;;;;;;;;
6.229787;51084470;1631;;;;;;;;;;;;;;
6.232287;51086970;1720;;;;;;;;;;;;;;
6.234787;51089470;1830;;;;;;;;;;;;;;
6.237287;51091970;1912;;;;;;;;;;;;;;
6.239787;51094470;1916;;;;;;;;;;;;;;
6.242287;51096970;1854;;;;;;;;;;;;;;
6.243593;51098276;1982;;;;;;;;;;;;;;
6.244787;51099470;1772;;;;;;;;;;;;;;
6.246093;51100776;1916;;;;;;;;;;;;;;
6.247287;51101970;1721;51102522;437.295;686.56;548.209;-19007.287;185.009;-4473.853;51102083;100.555;836.222;-224.165;-40987.188;-7406.91;7191.451
6.248593;51103276;1817;;;;;;;;;;;;;;
6.249787;51104470;1736;;;;;;;;;;;;;;
6.251093;51105776;1753;;;;;;;;;;;;;;
6.252287;51106970;1807;;;;;;;;;;;;;;
6.253593;51108276;1756;;;;;;;;;;;;;;
6.254787;51109470;1914;;;;;;;;;;;;;;
6.256093;51110776;1820;;;;;;;;;;;;;;
6.257287;51111970;1982;;;;;;;;;;;;;;
6.258593;51113276;1914;;;;;;;;;;;;;;
6.261093;51115776;1979;;;;;;;;;;;;;;
6.263593;51118276;1963;;;;;;;;;;;;;;
6.266093;51120776;1886;;;;;;;;;;;;;;
6.268593;51123276;1784;;;;;;;;;;;;;;
6.271093;51125776;1707;;;;;;;;;;;;;;
6.273593;51128276;1706;;;;;;;;;;;;;;
6.276093;51130776;1767;;;;;;;;;;;;;;
6.278593;51133276;1851;51134300;432.053;673.984;546.584;-18519.797;-35.117;-4030.097;51133857;108.612;834.091;-199.702;-39425.641;-6988.439;7068.566
6.281093;51135776;1900;;;;;;;;;;;;;;
6.283593;51138276;1897;;;;;;;;;;;;;;
6.286093;51140776;1819;;;;;;;;;;;;;;
6.288593;51143276;1711;;;;;;;;;;;;;;
6.291093;51145776;1646;;;;;;;;;;;;;;
6.306621;51161304;1644;;;;;;;;;;;;;;
6.309121;51163804;1707;;;;;;;;;;;;;;
6.311621;51166304;1792;;;;;;;;;;;;;;
6.314121;51168804;1855;;;;;;;;;;;;;;
6.316621;51171304;1846;;;;;;;;;;;;;;
6.319121;51173804;1768;;;;;;;;;;;;;;
6.321621;51176304;1662;;;;;;;;;;;;;;
6.324121;51178804;1595;51179250;431.538;664.862;549.998;-16540.307;-499.736;-3302.28;51178812;115.18;827.986;-175.998;-36145.797;-6700.267;6596.138
6.326621;51181304;1596;;;;;;;;;;;;;;
6.329121;51183804;1660;;;;;;;;;;;;;;
6.331621;51186304;1743;;;;;;;;;;;;;;
6.334121;51188804;1804;;;;;;;;;;;;;;
6.348468;51203151;1788;;;;;;;;;;;;;;
6.349849;51204532;1740;;;;;;;;;;;;;;
6.350968;51205651;1711;;;;;;;;;;;;;;
6.352349;51207032;1660;;;;;;;;;;;;;;
6.353468;51208151;1612;;;;;;;;;;;;;;
6.354849;51209532;1563;;;;;;;;;;;;;;
6.355968;51210651;1546;51211115;430.536;657.867;553.053;-14317.229;-951.624;-2679.103;51210673;119.644;821.668;-159.347;-31224.383;-6213.003;6328.456
6.357349;51212032;1502;;;;;;;;;;;;;;
6.358468;51213151;1533;;;;;;;;;;;;;;
6.359849;51214532;1512;;;;;;;;;;;;;;
6.360968;51215651;1609;;;;;;;;;;;;;;
6.362349;51217032;1579;;;;;;;;;;;;;;
6.363468;51218151;1694;;;;;;;;;;;;;;
6.364849;51219532;1674;;;;;;;;;;;;;;
6.365968;51220651;1752;;;;;;;;;;;;;;
6.367349;51222032;1738;;;;;;;;;;;;;;
6.369849;51224532;1735;;;;;;;;;;;;;;
6.372349;51227032;1659;;;;;;;;;;;;;;
6.374849;51229532;1567;;;;;;;;;;;;;;
6.377349;51232032;1513;;;;;;;;;;;;;;
6.379849;51234532;1527;;;;;;;;;;;;;;
6.382349;51237032;1607;51236366;432.092;651.472;558.2;-11393.742;-1456.168;-2106.336;51235928;125.594;822.65;-144.999;-25110.102;-5882.228;5985.345
6.384849;51239532;1706;;;;;;;;;;;;;;
6.387349;51242032;1774;;;;;;;;;;;;;;
6.388592;51243275;1628;;;;;;;;;;;;;;
6.389849;51244532;1776;;;;;;;;;;;;;;
6.391092;51245775;1577;;;;;;;;;;;;;;
6.392349;51247032;1710;;;;;;;;;;;;;;
6.393592;51248275;1596;;;;;;;;;;;;;;
6.396092;51250775;1679;;;;;;;;;;;;;;
6.398592;51253275;1786;;;;;;;;;;;;;;
6.401092;51255775;1865;;;;;;;;;;;;;;
6.403592;51258275;1867;;;;;;;;;;;;;;
6.406092;51260775;1805;;;;;;;;;;;;;;
6.408592;51263275;1725;;;;;;;;;;;;;;
6.411092;51265775;1688;;;;;;;;;;;;;;
6.413592;51268275;1710;;;;;;;;;;;;;;
6.416092;51270775;1801;;;;;;;;;;;;;;
6.418592;51273275;1920;;;;;;;;;;;;;;
6.421092;51275775;1999;;;;;;;;;;;;;;
6.423592;51278275;2012;51278207;429.928;650.125;560.498;-8296.617;-1980.547;-1708.331;51277765;128.574;831.544;-136.273;-17856.908;-5899.179;5145.328
6.426092;51280775;1963;;;;;;;;;;;;;;
6.428592;51283275;1887;;;;;;;;;;;;;;
6.431092;51285775;1851;;;;;;;;;;;;;;
6.433592;51288275;1884;;;;;;;;;;;;;;
6.443795;51298478;2201;;;;;;;;;;;;;;
6.446295;51300978;2152;;;;;;;;;;;;;;
6.448795;51303478;2077;;;;;;;;;;;;;;
6.451295;51305978;2041;;;;;;;;;;;;;;
6.453795;51308478;2077;;;;;;;;;;;;;;
6.456295;51310978;2185;;;;;;;;;;;;;;
6.458795;51313478;2314;;;;;;;;;;;;;;
6.461295;51315978;2400;;;;;;;;;;;;;;
6.463795;51318478;2415;;;;;;;;;;;;;;
6.466295;51320978;2377;51321600;427.616;651.73;564.29;-5596.286;-2445.02;-1247.102;51321161;128.367;842.134;-134.108;-11179.875;-6365.908;3608.812
6.468795;51323478;2302;;;;;;;;;;;;;;
6.471295;51325978;2268;;;;;;;;;;;;;;
6.471448;51326131;1982;;;;;;;;;;;;;;
6.473795;51328478;2299;;;;;;;;;;;;;;
6.473948;51328631;2105;;;;;;;;;;;;;;
6.476295;51330978;2394;;;;;;;;;;;;;;
6.476448;51331131;2189;;;;;;;;;;;;;;
6.478795;51333478;2506;;;;;;;;;;;;;;
6.481295;51335978;2576;;;;;;;;;;;;;;
6.490185;51344868;2584;;;;;;;;;;;;;;
6.492685;51347368;2510;;;;;;;;;;;;;;
6.495185;51349868;2428;;;;;;;;;;;;;;
6.497685;51352368;2364;;;;;;;;;;;;;;
6.500185;51354868;2383;;;;;;;;;;;;;;
6.502685;51357368;2461;;;;;;;;;;;;;;
6.505185;51359868;2556;;;;;;;;;;;;;;
6.507685;51362368;2618;;;;;;;;;;;;;;
6.510185;51364868;2606;51364996;428.372;653.053;568.619;-4255.972;-2820.206;-645.747;51364558;126.066;847.991;-128.61;-2867.506;-6745.425;1378.683
6.512685;51367368;2536;;;;;;;;;;;;;;
6.515185;51369868;2442;;;;;;;;;;;;;;
6.517685;51372368;2382;;;;;;;;;;;;;;
6.520185;51374868;2395;;;;;;;;;;;;;;
6.527934;51382617;2462;;;;;;;;;;;;;;
6.530434;51385117;2553;;;;;;;;;;;;;;
6.532934;51387617;2615;;;;;;;;;;;;;;
6.535434;51390117;2590;;;;;;;;;;;;;;
6.537934;51392617;2510;;;;;;;;;;;;;;
6.540434;51395117;2414;;;;;;;;;;;;;;
6.542934;51397617;2347;51398326;431.524;660.581;573.525;-2491.361;-2929.008;-347.46;51397890;123.484;858.857;-134.367;6146.182;-6766.466;-464.313
6.545434;51400117;2348;;;;;;;;;;;;;;
6.547934;51402617;2409;;;;;;;;;;;;;;
6.549481;51404164;2504;;;;;;;;;;;;;;
6.550434;51405117;2488;;;;;;;;;;;;;;
6.551981;51406664;2408;;;;;;;;;;;;;;
6.552934;51407617;2526;;;;;;;;;;;;;;
6.554481;51409164;2296;;;;;;;;;;;;;;
6.556981;51411664;2220;;;;;;;;;;;;;;
6.559481;51414164;2216;;;;;;;;;;;;;;
6.561981;51416664;2250;;;;;;;;;;;;;;
6.564481;51419164;2344;;;;;;;;;;;;;;
6.566981;51421664;2378;;;;;;;;;;;;;;
6.569481;51424164;2345;;;;;;;;;;;;;;
6.571981;51426664;2250;;;;;;;;51427839;118.078;879.482;-145.87;14363.998;-7308.393;-2279.91
6.574481;51429164;2127;51428277;430.615;660.437;573.153;-836.855;-2903.308;-140.649;;;;;;;
6.576981;51431664;2046;;;;;;;;;;;;;;
6.579481;51434164;2038;;;;;;;;;;;;;;
6.581981;51436664;2090;;;;;;;;;;;;;;
6.584481;51439164;2158;;;;;;;;;;;;;;
6.591515;51446198;2201;;;;;;;;;;;;;;
6.594015;51448698;2170;;;;;;;;;;;;;;
6.596515;51451198;2064;;;;;;;;;;;;;;
6.599015;51453698;1950;;;;;;;;;;;;;;
6.601515;51456198;1881;;;;;;;;;;;;;;
6.604015;51458698;1880;;;;;;;;;;;;;;
6.606515;51461198;1942;;;;;;;;;;;;;;
6.609015;51463698;2026;51464897;429.568;666.284;578.588;381.425;-2449.705;-381.679;51464461;111.924;892.47;-156.04;21672.172;-7824.098;-4463.665
6.611515;51466198;2074;;;;;;;;;;;;;;
6.614015;51468698;2044;;;;;;;;;;;;;;
6.616515;51471198;1962;;;;;;;;;;;;;;
6.619015;51473698;1850;;;;;;;;;;;;;;
6.621515;51476198;1782;;;;;;;;;;;;;;
6.625349;51480032;1785;;;;;;;;;;;;;;
6.627849;51482532;1848;;;;;;;;;;;;;;
6.630349;51485032;1927;;;;;;;;;;;;;;
6.632849;51487532;1966;;;;;;;;;;;;;;
6.635349;51490032;1944;;;;;;;;;;;;;;
6.637849;51492532;1851;;;;;;;;;;;;;;
6.640349;51495032;1742;;;;;;;;;;;;;;
6.642849;51497532;1676;51498144;428.677;674.816;581.153;2172.729;-1842.032;-690.72;51497706;104.218;904.607;-169.131;26473.375;-7880.018;-5534.169
6.645349;51500032;1676;;;;;;;;;;;;;;
6.647849;51502532;1738;;;;;;;;;;;;;;
6.650349;51505032;1819;;;;;;;;;;;;;;
6.652849;51507532;1852;;;;;;;;;;;;;;
6.655089;51509772;1819;;;;;;;;;;;;;;
6.657589;51512272;1722;;;;;;;;;;;;;;
6.660089;51514772;1608;;;;;;;;;;;;;;
6.662589;51517272;1534;;;;;;;;;;;;;;
6.665089;51519772;1534;;;;;;;;;;;;;;
6.667589;51522272;1595;;;;;;;;;;;;;;
6.670089;51524772;1672;;;;;;;;;;;;;;
6.672589;51527272;1707;;;;;;;;;;;;;;
6.675089;51529772;1676;51529824;429.252;680.298;584.163;2720.78;-1347.43;-1138.309;51529388;104.112;901.613;-182.018;29007.143;-7932.704;-6189.773
6.677589;51532272;1584;;;;;;;;;;;;;;
6.680089;51534772;1484;;;;;;;;;;;;;;
6.682589;51537272;1432;;;;;;;;;;;;;;
6.685089;51539772;1435;;;;;;;;;;;;;;
6.688949;51543632;1500;;;;;;;;;;;;;;
6.691449;51546132;1592;;;;;;;;;;;;;;
6.693949;51548632;1640;;;;;;;;;;;;;;
6.696449;51551132;1613;;;;;;;;;;;;;;
6.698949;51553632;1534;;;;;;;;;;;;;;
6.701449;51556132;1439;;;;;;;;;;;;;;
6.703949;51558632;1391;;;;;;;;;;;;;;
6.706449;51561132;1415;;;;;;;;;;;;;;
6.708949;51563632;1484;51563245;432.952;678.138;588.297;2389.178;-549.434;-1687.769;51562806;103.482;904.375;-198.83;30432.473;-7907.069;-7407.597
6.711449;51566132;1582;;;;;;;;;;;;;;
6.713949;51568632;1640;;;;;;;;;;;;;;
6.716449;51571132;1624;;;;;;;;;;;;;;
6.718949;51573632;1548;;;;;;;;;;;;;;
