timestamp_s;timestamp_us;emg_raw;imu1_timestamp_us;imu1_ax;imu1_ay;imu1_az;imu1_gx;imu1_gy;imu1_gz;imu2_timestamp_us;imu2_ax;imu2_ay;imu2_az;imu2_gx;imu2_gy;imu2_gz
0.00043;15084659;;15084659;150.883;-476.401;894.172;524.416;-108.261;46.183;15084229;-985.604;-5.814;77.755;1600.783;-161.867;-341.54
0.030387;15114616;;15114616;151.018;-475.542;894.89;519.632;-112.473;49.998;15114185;-985.978;-5.957;77.631;1607.369;-141.523;-348.088
0.052511;15136740;;15136740;151.227;-474.64;895.359;529.963;-111.662;44.436;15136310;-986.064;-5.909;77.477;1609.688;-144.947;-345.996
0.058271;15142500;186;;;;;;;;;;;;;;
0.060771;15145000;185;;;;;;;;;;;;;;
0.063271;15147500;153;;;;;;;;;;;;;;
0.065771;15150000;155;;;;;;;;;;;;;;
0.068271;15152500;143;;;;;;;;;;;;;;
0.070771;15155000;125;;;;;;;;;;;;;;
0.073271;15157500;151;;;;;;;;;;;;;;
0.075771;15160000;344;;;;;;;;;;;;;;
0.078271;15162500;250;;;;;;;;;;;;;;
0.080771;15165000;184;;;;;;;;;;;;;;
0.083271;15167500;157;15168072;151.095;-474.563;895.463;582.652;-103.454;29.089;15167641;-985.921;-5.845;77.519;1607.079;-152.575;-339.196
0.085771;15170000;158;;;;;;;;;;;;;;
0.088271;15172500;138;;;;;;;;;;;;;;
0.090771;15175000;151;;;;;;;;;;;;;;
0.093271;15177500;126;;;;;;;;;;;;;;
0.095771;15180000;138;;;;;;;;;;;;;;
0.098271;15182500;152;;;;;;;;;;;;;;
0.100771;15185000;173;;;;;;;;;;;;;;
0.103271;15187500;151;;;;;;;;;;;;;;
0.105771;15190000;125;;;;;;;;;;;;;;
0.108271;15192500;265;;;;;;;;;;;;;;
0.110771;15195000;168;;;;;;;;;;;;;;
0.113271;15197500;157;15198032;151.141;-474.698;895.336;598.582;-114.469;39.01;15197596;-986.035;-5.87;77.45;1606.787;-144.946;-341.049
0.115771;15200000;142;;;;;;;;;;;;;;
0.118271;15202500;152;;;;;;;;;;;;;;
0.120771;15205000;154;;;;;;;;;;;;;;
0.123271;15207500;168;;;;;;;;;;;;;;
0.125771;15210000;138;;;;;;;;;;;;;;
0.128271;15212500;152;;;;;;;;;;;;;;
0.130771;15215000;127;;;;;;;;;;;;;;
0.133271;15217500;127;;;;;;;;;;;;;;
0.135771;15220000;0;;;;;;;;;;;;;;
0.138271;15222500;288;15221724;151.185;-474.784;895.245;561.216;-117.933;51.497;15221292;-986.113;-5.717;77.475;1605.198;-136.824;-344.122
0.140771;15225000;232;;;;;;;;;;;;;;
0.143271;15227500;171;;;;;;;;;;;;;;
0.145771;15230000;142;;;;;;;;;;;;;;
0.148271;15232500;154;;;;;;;;;;;;;;
0.150771;15235000;151;;;;;;;;;;;;;;
0.153271;15237500;138;;;;;;;;;;;;;;
0.155771;15240000;142;;;;;;;;;;;;;;
0.158271;15242500;366;;;;;;;;;;;;;;
0.160771;15245000;296;;;;;;;;;;;;;;
0.163271;15247500;200;;;;;;;;;;;;;;
0.165771;15250000;174;;;;;;;;15251226;-986.022;-5.693;77.615;1605.438;-151.858;-337.853
0.168271;15252500;136;15251656;151.116;-474.847;895.08;580.405;-111.161;44.109;;;;;;;
0.170771;15255000;155;;;;;;;;;;;;;;
0.173271;15257500;134;;;;;;;;;;;;;;
0.175771;15260000;142;;;;;;;;;;;;;;
0.178271;15262500;174;;;;;;;;;;;;;;
0.180771;15265000;181;;;;;;;;;;;;;;
0.183271;15267500;172;;;;;;;;;;;;;;
0.185771;15270000;140;;;;;;;;;;;;;;
0.188271;15272500;152;;;;;;;;;;;;;;
0.190771;15275000;346;;;;;;;;;;;;;;
0.193271;15277500;220;;;;;;;;;;;;;;
0.195771;15280000;185;;;;;;;;15281182;-986.015;-5.592;77.577;1605.229;-157.39;-334.523
0.198271;15282500;158;15281614;151.033;-474.87;895.027;561.01;-115.228;48.904;;;;;;;
0.200771;15285000;174;;;;;;;;;;;;;;
0.203271;15287500;151;;;;;;;;;;;;;;
0.205771;15290000;157;;;;;;;;;;;;;;
0.208271;15292500;152;;;;;;;;;;;;;;
0.210771;15295000;124;;;;;;;;;;;;;;
0.213271;15297500;128;;;;;;;;;;;;;;
0.215771;15300000;139;;;;;;;;;;;;;;
0.218271;15302500;154;;;;;;;;;;;;;;
0.220771;15305000;364;;;;;;;;;;;;;;
0.223271;15307500;220;;;;;;;;;;;;;;
0.225771;15310000;168;;;;;;;;;;;;;;
0.228271;15312500;136;15312943;151.155;-475.045;895.092;576.709;-109.029;46.896;15312513;-986.051;-5.459;77.688;1602.405;-156.083;-336.609
0.230771;15315000;151;;;;;;;;;;;;;;
0.233271;15317500;151;;;;;;;;;;;;;;
0.235771;15320000;140;;;;;;;;;;;;;;
0.238271;15322500;169;;;;;;;;;;;;;;
0.240771;15325000;154;;;;;;;;;;;;;;
0.243271;15327500;366;;;;;;;;;;;;;;
0.245771;15330000;270;;;;;;;;;;;;;;
0.248271;15332500;167;;;;;;;;;;;;;;
0.250771;15335000;137;;;;;;;;;;;;;;
0.253271;15337500;137;;;;;;;;;;;;;;
0.255771;15340000;160;;;;;;;;;;;;;;
0.258271;15342500;152;;;;;;;;;;;;;;
0.260771;15345000;153;15344455;151.094;-475.418;894.813;564.499;-108.39;49.364;15344016;-986.006;-5.454;77.781;1604.534;-143.904;-340.341
0.263271;15347500;169;;;;;;;;;;;;;;
0.265771;15350000;140;;;;;;;;;;;;;;
0.268271;15352500;126;;;;;;;;;;;;;;
0.270771;15355000;124;;;;;;;;;;;;;;
0.273271;15357500;362;;;;;;;;;;;;;;
0.275771;15360000;282;;;;;;;;;;;;;;
0.278271;15362500;199;;;;;;;;;;;;;;
0.280771;15365000;171;;;;;;;;;;;;;;
0.283271;15367500;154;;;;;;;;;;;;;;
0.285771;15370000;141;;;;;;;;;;;;;;
0.288271;15372500;153;;;;;;;;;;;;;;
0.290771;15375000;126;15375944;150.933;-475.425;894.785;571.711;-106.033;46.896;15375522;-985.841;-5.425;77.942;1601.745;-149.396;-338.637
0.293271;15377500;135;;;;;;;;;;;;;;
0.295771;15380000;143;;;;;;;;;;;;;;
0.298271;15382500;154;;;;;;;;;;;;;;
0.300771;15385000;172;;;;;;;;;;;;;;
0.303271;15387500;0;;;;;;;;;;;;;;
0.305771;15390000;267;;;;;;;;;;;;;;
0.308271;15392500;159;;;;;;;;;;;;;;
0.310771;15395000;138;;;;;;;;;;;;;;
0.313271;15397500;154;;;;;;;;;;;;;;
0.315771;15400000;158;;;;;;;;;;;;;;
0.318271;15402500;172;;;;;;;;;;;;;;
0.320771;15405000;156;;;;;;;;;;;;;;
0.323271;15407500;152;15407461;150.852;-475.541;894.582;557.126;-110.356;47.176;15407027;-985.746;-5.483;78.01;1597.783;-156.364;-336.58
0.325771;15410000;156;;;;;;;;;;;;;;
0.328271;15412500;150;;;;;;;;;;;;;;
0.330771;15415000;125;;;;;;;;;;;;;;
0.333271;15417500;135;;;;;;;;;;;;;;
0.335771;15420000;332;;;;;;;;;;;;;;
0.338271;15422500;239;;;;;;;;;;;;;;
0.340771;15425000;184;;;;;;;;;;;;;;
0.343271;15427500;184;;;;;;;;;;;;;;
0.345771;15430000;166;;;;;;;;;;;;;;
0.348271;15432500;153;;;;;;;;;;;;;;
0.350771;15435000;134;;;;;;;;;;;;;;
0.353271;15437500;155;15437416;150.923;-475.585;894.62;559.894;-110.089;41.755;15436981;-985.826;-5.533;77.977;1593.144;-156.858;-334.188
0.355771;15440000;167;;;;;;;;;;;;;;
0.358271;15442500;173;;;;;;;;;;;;;;
0.360771;15445000;183;;;;;;;;;;;;;;
0.363271;15447500;154;;;;;;;;;;;;;;
0.365771;15450000;218;;;;;;;;;;;;;;
0.368271;15452500;254;;;;;;;;;;;;;;
0.370771;15455000;189;;;;;;;;;;;;;;
0.373271;15457500;169;;;;;;;;;;;;;;
0.375771;15460000;154;;;;;;;;;;;;;;
0.378271;15462500;157;;;;;;;;;;;;;;
0.380771;15465000;158;;;;;;;;;;;;;;
0.383271;15467500;172;;;;;;;;15468487;-985.694;-5.61;78.019;1591.799;-152.077;-335.854
0.385771;15470000;167;15468918;150.867;-475.681;894.548;555.087;-107.647;46.667;;;;;;;
0.388271;15472500;136;;;;;;;;;;;;;;
0.390771;15475000;151;;;;;;;;;;;;;;
0.393271;15477500;137;;;;;;;;;;;;;;
0.395771;15480000;169;;;;;;;;;;;;;;
0.398271;15482500;393;;;;;;;;;;;;;;
0.400771;15485000;240;;;;;;;;;;;;;;
0.403271;15487500;204;;;;;;;;;;;;;;
0.405771;15490000;152;;;;;;;;;;;;;;
0.408271;15492500;153;;;;;;;;;;;;;;
0.410771;15495000;151;;;;;;;;;;;;;;
0.413271;15497500;136;;;;;;;;;;;;;;
0.415771;15500000;141;15500335;150.711;-475.662;894.637;553.583;-110.139;46.521;15499905;-985.673;-5.665;78.089;1591.834;-147.536;-338.749
0.418271;15502500;174;;;;;;;;;;;;;;
0.420771;15505000;174;;;;;;;;;;;;;;
0.423271;15507500;171;;;;;;;;;;;;;;
0.425771;15510000;157;;;;;;;;;;;;;;
0.428271;15512500;152;;;;;;;;;;;;;;
0.430771;15515000;285;;;;;;;;;;;;;;
0.433271;15517500;188;;;;;;;;;;;;;;
0.435771;15520000;158;;;;;;;;;;;;;;
0.438271;15522500;157;;;;;;;;;;;;;;
0.440771;15525000;181;;;;;;;;;;;;;;
0.443271;15527500;170;;;;;;;;;;;;;;
0.445771;15530000;137;;;;;;;;;;;;;;
0.448271;15532500;125;15531847;150.849;-475.706;894.6;550.841;-107.695;47.258;15531408;-985.586;-5.687;78.094;1590.555;-152.847;-335.374
0.450771;15535000;125;;;;;;;;;;;;;;
0.453271;15537500;153;;;;;;;;;;;;;;
0.455771;15540000;141;;;;;;;;;;;;;;
0.458271;15542500;155;;;;;;;;;;;;;;
0.460771;15545000;301;;;;;;;;;;;;;;
0.463271;15547500;205;;;;;;;;;;;;;;
0.465771;15550000;174;;;;;;;;;;;;;;
0.468271;15552500;136;;;;;;;;;;;;;;
0.470771;15555000;127;;;;;;;;;;;;;;
0.473271;15557500;136;;;;;;;;;;;;;;
0.475771;15560000;144;;;;;;;;;;;;;;
0.478271;15562500;172;15563336;150.84;-475.881;894.467;547.799;-109.748;47.957;15562914;-985.558;-5.774;77.996;1590.215;-155.267;-333.48
0.480771;15565000;176;;;;;;;;;;;;;;
0.483271;15567500;153;;;;;;;;;;;;;;
0.485771;15570000;139;;;;;;;;;;;;;;
0.488271;15572500;127;;;;;;;;;;;;;;
0.490771;15575000;19;;;;;;;;;;;;;;
0.493271;15577500;255;;;;;;;;;;;;;;
0.495771;15580000;182;;;;;;;;;;;;;;
0.498271;15582500;160;;;;;;;;;;;;;;
0.500771;15585000;158;;;;;;;;;;;;;;
0.503271;15587500;170;;;;;;;;;;;;;;
0.505771;15590000;139;;;;;;;;;;;;;;
0.508271;15592500;151;15593304;150.801;-475.914;894.499;543.159;-108.635;47.747;15592870;-985.58;-5.687;78.086;1587.704;-159.316;-332.119
0.510771;15595000;125;;;;;;;;;;;;;;
0.513271;15597500;151;;;;;;;;;;;;;;
0.515771;15600000;140;;;;;;;;;;;;;;
0.518271;15602500;170;;;;;;;;;;;;;;
0.520771;15605000;173;;;;;;;;;;;;;;
0.523271;15607500;343;;;;;;;;;;;;;;
0.525771;15610000;220;;;;;;;;;;;;;;
0.528271;15612500;144;;;;;;;;;;;;;;
0.530771;15615000;151;15615422;150.728;-475.975;894.414;541.376;-107.579;47.547;15614995;-985.528;-5.708;78.098;1585.319;-156.6;-333.45
0.533271;15617500;126;;;;;;;;;;;;;;
0.535771;15620000;160;;;;;;;;;;;;;;
0.538271;15622500;171;;;;;;;;;;;;;;
0.540771;15625000;151;;;;;;;;;;;;;;
0.543271;15627500;151;;;;;;;;;;;;;;
0.545771;15630000;157;;;;;;;;;;;;;;
0.548271;15632500;144;;;;;;;;;;;;;;
0.550771;15635000;143;;;;;;;;;;;;;;
0.553271;15637500;315;;;;;;;;;;;;;;
0.555771;15640000;268;;;;;;;;;;;;;;
0.558271;15642500;218;;;;;;;;;;;;;;
0.560771;15645000;188;;;;;;;;;;;;;;
0.563271;15647500;174;15646932;150.755;-475.985;894.303;536.62;-108.325;46.92;15646498;-985.43;-5.672;78.146;1587.428;-159.708;-335.59
0.565771;15650000;138;;;;;;;;;;;;;;
0.568271;15652500;152;;;;;;;;;;;;;;
0.570771;15655000;149;;;;;;;;;;;;;;
0.573271;15657500;134;;;;;;;;;;;;;;
0.575771;15660000;168;;;;;;;;;;;;;;
0.578271;15662500;155;;;;;;;;;;;;;;
0.580771;15665000;172;;;;;;;;;;;;;;
0.583271;15667500;169;;;;;;;;;;;;;;
0.585771;15670000;366;;;;;;;;;;;;;;
0.588271;15672500;222;;;;;;;;;;;;;;
0.590771;15675000;153;;;;;;;;;;;;;;
0.593271;15677500;158;15676883;150.757;-476.085;894.307;531.664;-109.908;44.574;15676455;-985.508;-5.578;78.161;1588.556;-165.285;-333.686
0.595771;15680000;170;;;;;;;;;;;;;;
0.598271;15682500;174;;;;;;;;;;;;;;
0.600771;15685000;157;;;;;;;;;;;;;;
0.603271;15687500;152;;;;;;;;;;;;;;
0.605771;15690000;155;;;;;;;;;;;;;;
0.608271;15692500;143;;;;;;;;;;;;;;
0.610771;15695000;125;;;;;;;;;;;;;;
0.613271;15697500;128;;;;;;;;;;;;;;
0.615771;15700000;349;;;;;;;;;;;;;;
0.618271;15702500;251;;;;;;;;;;;;;;
0.620771;15705000;202;;;;;;;;;;;;;;
0.623271;15707500;155;15708394;150.862;-476.285;894.347;533.081;-108.35;45.407;15707959;-985.563;-5.665;78.218;1590.941;-166.208;-332.314
0.625771;15710000;136;;;;;;;;;;;;;;
0.628271;15712500;124;;;;;;;;;;;;;;
0.630771;15715000;142;;;;;;;;;;;;;;
0.633271;15717500;127;;;;;;;;;;;;;;
0.635771;15720000;158;;;;;;;;;;;;;;
0.638271;15722500;333;;;;;;;;;;;;;;
0.640771;15725000;231;;;;;;;;;;;;;;
0.643271;15727500;199;;;;;;;;;;;;;;
0.645771;15730000;142;;;;;;;;;;;;;;
0.648271;15732500;152;;;;;;;;;;;;;;
0.650771;15735000;126;;;;;;;;;;;;;;
0.653271;15737500;125;;;;;;;;;;;;;;
0.655771;15740000;168;15739893;150.914;-476.376;894.349;528.739;-108.183;44.45;15739463;-985.53;-5.589;78.107;1593.644;-163.585;-335.386
0.658271;15742500;154;;;;;;;;;;;;;;
0.660771;15745000;155;;;;;;;;;;;;;;
0.663271;15747500;153;;;;;;;;;;;;;;
0.665771;15750000;138;;;;;;;;;;;;;;
0.668271;15752500;281;;;;;;;;;;;;;;
0.670771;15755000;253;;;;;;;;;;;;;;
0.673271;15757500;173;;;;;;;;;;;;;;
0.675771;15760000;157;;;;;;;;;;;;;;
0.678271;15762500;157;;;;;;;;;;;;;;
0.680771;15765000;173;;;;;;;;;;;;;;
0.683271;15767500;152;;;;;;;;;;;;;;
0.685771;15770000;156;;;;;;;;15770969;-985.487;-5.578;78.063;1589.649;-164.156;-336.116
0.688271;15772500;142;15771400;151.048;-476.469;894.271;527.677;-108.024;44.415;;;;;;;
0.690771;15775000;141;;;;;;;;;;;;;;
0.693271;15777500;135;;;;;;;;;;;;;;
0.695771;15780000;166;;;;;;;;;;;;;;
0.698271;15782500;106;;;;;;;;;;;;;;
0.700771;15785000;280;;;;;;;;;;;;;;
0.703271;15787500;216;;;;;;;;;;;;;;
0.705771;15790000;155;;;;;;;;;;;;;;
0.708271;15792500;155;;;;;;;;;;;;;;
0.710771;15795000;151;;;;;;;;;;;;;;
0.713271;15797500;138;;;;;;;;;;;;;;
0.715771;15800000;167;;;;;;;;;;;;;;
0.718271;15802500;153;15802903;151.035;-476.479;894.209;525.356;-109.185;44.819;15802473;-985.415;-5.628;78.052;1591.542;-166.448;-337.686
0.720771;15805000;172;;;;;;;;;;;;;;
0.723271;15807500;169;;;;;;;;;;;;;;
0.725771;15810000;156;;;;;;;;;;;;;;
0.728271;15812500;151;;;;;;;;;;;;;;
0.730771;15815000;350;;;;;;;;;;;;;;
0.733271;15817500;232;;;;;;;;;;;;;;
0.735771;15820000;189;;;;;;;;;;;;;;
0.738271;15822500;184;;;;;;;;;;;;;;
0.740771;15825000;182;;;;;;;;;;;;;;
0.743271;15827500;153;;;;;;;;;;;;;;
0.745771;15830000;138;;;;;;;;;;;;;;
0.748271;15832500;152;15832862;150.932;-476.512;894.279;521.838;-113.788;45.64;15832428;-985.389;-5.622;78.004;1594.214;-169.501;-336.114
0.750771;15835000;141;;;;;;;;;;;;;;
0.753271;15837500;154;;;;;;;;;;;;;;
0.755771;15840000;143;;;;;;;;;;;;;;
0.758271;15842500;154;;;;;;;;;;;;;;
0.760771;15845000;156;;;;;;;;;;;;;;
0.763271;15847500;297;;;;;;;;;;;;;;
0.765771;15850000;206;;;;;;;;;;;;;;
0.768271;15852500;152;;;;;;;;;;;;;;
0.770771;15855000;126;15854982;150.815;-476.537;894.223;519.371;-117.286;42.921;15854554;-985.408;-5.603;78.008;1595.441;-169.338;-339.433
0.773271;15857500;155;;;;;;;;;;;;;;
0.775771;15860000;160;;;;;;;;;;;;;;
0.778271;15862500;154;;;;;;;;;;;;;;
0.780771;15865000;154;;;;;;;;;;;;;;
0.783271;15867500;142;;;;;;;;;;;;;;
0.785771;15870000;137;;;;;;;;;;;;;;
0.788271;15872500;126;;;;;;;;;;;;;;
0.790771;15875000;126;;;;;;;;;;;;;;
0.793271;15877500;333;;;;;;;;;;;;;;
0.795771;15880000;249;;;;;;;;;;;;;;
0.798271;15882500;188;;;;;;;;;;;;;;
0.800771;15885000;169;;;;;;;;15886059;-985.413;-5.432;78.054;1594.419;-170.059;-341.711
0.803271;15887500;153;15886493;150.734;-476.61;894.207;513.528;-117.547;42.962;;;;;;;
0.805771;15890000;139;;;;;;;;;;;;;;
0.808271;15892500;150;;;;;;;;;;;;;;
0.810771;15895000;142;;;;;;;;;;;;;;
0.813271;15897500;136;;;;;;;;;;;;;;
0.815771;15900000;142;;;;;;;;;;;;;;
0.818271;15902500;153;;;;;;;;;;;;;;
0.820771;15905000;172;;;;;;;;;;;;;;
0.823271;15907500;151;;;;;;;;;;;;;;
0.825771;15910000;318;;;;;;;;;;;;;;
0.828271;15912500;189;;;;;;;;;;;;;;
0.830771;15915000;140;;;;;;;;15916014;-985.473;-5.484;78.092;1593.886;-173.806;-343.001
0.833271;15917500;153;15916437;150.634;-476.643;894.215;515.414;-117.357;43.002;;;;;;;
0.835771;15920000;168;;;;;;;;;;;;;;
0.838271;15922500;155;;;;;;;;;;;;;;
0.840771;15925000;155;;;;;;;;;;;;;;
0.843271;15927500;142;;;;;;;;;;;;;;
0.845771;15930000;155;;;;;;;;;;;;;;
0.848271;15932500;124;;;;;;;;;;;;;;
0.850771;15935000;143;;;;;;;;;;;;;;
0.853271;15937500;127;;;;;;;;;;;;;;
0.855771;15940000;319;;;;;;;;;;;;;;
0.858271;15942500;247;;;;;;;;;;;;;;
0.860771;15945000;199;;;;;;;;;;;;;;
0.863271;15947500;154;15947784;150.599;-476.723;894.175;518.955;-115.864;40.852;15947345;-985.378;-5.521;78.116;1589.879;-174.741;-342.038
0.865771;15950000;156;;;;;;;;;;;;;;
0.868271;15952500;142;;;;;;;;;;;;;;
0.870771;15955000;151;;;;;;;;;;;;;;
0.873271;15957500;152;;;;;;;;;;;;;;
0.875771;15960000;167;;;;;;;;;;;;;;
0.878271;15962500;327;;;;;;;;;;;;;;
0.880771;15965000;235;;;;;;;;;;;;;;
0.883271;15967500;169;;;;;;;;;;;;;;
0.885771;15970000;141;;;;;;;;;;;;;;
0.888271;15972500;154;;;;;;;;;;;;;;
0.890771;15975000;125;;;;;;;;;;;;;;
0.893271;15977500;155;;;;;;;;;;;;;;
0.895771;15980000;143;15979272;150.608;-476.792;894.21;517.07;-113.571;42.747;15978850;-985.476;-5.568;78.145;1590.447;-173.879;-343.311
0.898271;15982500;156;;;;;;;;;;;;;;
0.900771;15985000;157;;;;;;;;;;;;;;
0.903271;15987500;171;;;;;;;;;;;;;;
0.905771;15990000;157;;;;;;;;;;;;;;
0.908271;15992500;297;;;;;;;;;;;;;;
0.910771;15995000;232;;;;;;;;;;;;;;
0.913271;15997500;168;;;;;;;;;;;;;;
0.915771;16000000;172;;;;;;;;;;;;;;
0.918271;16002500;174;;;;;;;;;;;;;;
0.920771;16005000;158;;;;;;;;;;;;;;
0.923271;16007500;170;;;;;;;;;;;;;;
0.925771;16010000;138;16010615;150.599;-476.767;894.145;515.279;-114.893;43.234;16010181;-985.484;-5.516;78.111;1593.175;-173.935;-339.708
0.928271;16012500;125;;;;;;;;;;;;;;
0.930771;16015000;142;;;;;;;;;;;;;;
0.933271;16017500;153;;;;;;;;;;;;;;
0.935771;16020000;159;;;;;;;;;;;;;;
0.938271;16022500;1;;;;;;;;;;;;;;
0.940771;16025000;264;;;;;;;;;;;;;;
0.943271;16027500;202;;;;;;;;;;;;;;
0.945771;16030000;168;;;;;;;;;;;;;;
0.948271;16032500;153;;;;;;;;;;;;;;
0.950771;16035000;136;;;;;;;;;;;;;;
0.953271;16037500;153;;;;;;;;;;;;;;
0.955771;16040000;150;;;;;;;;;;;;;;
0.958271;16042500;153;16042119;150.621;-476.688;893.998;512.265;-116.148;41.51;16041684;-985.486;-5.465;78.054;1593.579;-174.425;-340.66
0.960771;16045000;173;;;;;;;;;;;;;;
0.963271;16047500;169;;;;;;;;;;;;;;
0.965771;16050000;156;;;;;;;;;;;;;;
0.968271;16052500;123;;;;;;;;;;;;;;
0.970771;16055000;312;;;;;;;;;;;;;;
0.973271;16057500;218;;;;;;;;;;;;;;
0.975771;16060000;168;;;;;;;;;;;;;;
0.978271;16062500;158;;;;;;;;;;;;;;
0.980771;16065000;155;;;;;;;;;;;;;;
0.983271;16067500;151;;;;;;;;;;;;;;
0.985771;16070000;138;;;;;;;;;;;;;;
0.988271;16072500;143;16071900;150.666;-476.644;894.036;515.527;-115.153;43.81;16071466;-985.408;-5.351;78.233;1596.587;-175.329;-340.252
0.990771;16075000;124;;;;;;;;;;;;;;
0.993271;16077500;126;;;;;;;;;;;;;;
0.995771;16080000;140;;;;;;;;;;;;;;
0.998271;16082500;172;;;;;;;;;;;;;;
1.000771;16085000;0;;;;;;;;;;;;;;
1.003271;16087500;264;;;;;;;;;;;;;;
1.005771;16090000;174;;;;;;;;;;;;;;
1.008271;16092500;138;;;;;;;;16093593;-985.462;-5.4;78.194;1595.07;-172.688;-342.927
1.010771;16095000;152;16094020;150.758;-476.712;894.01;512.938;-115.083;44.244;;;;;;;
1.013271;16097500;135;;;;;;;;;;;;;;
1.015771;16100000;160;;;;;;;;;;;;;;
1.018271;16102500;155;;;;;;;;;;;;;;
1.020771;16105000;154;;;;;;;;;;;;;;
1.023271;16107500;171;;;;;;;;;;;;;;
1.025771;16110000;156;;;;;;;;;;;;;;
1.028271;16112500;127;;;;;;;;;;;;;;
1.030771;16115000;124;;;;;;;;;;;;;;
1.033271;16117500;333;;;;;;;;;;;;;;
1.035771;16120000;220;16119293;150.766;-476.776;894.005;510.041;-116.329;46.407;16118859;-985.55;-5.466;78.207;1597.567;-176.303;-344.156
1.038271;16122500;183;;;;;;;;;;;;;;
1.040771;16125000;185;;;;;;;;;;;;;;
1.043271;16127500;170;;;;;;;;;;;;;;
1.045771;16130000;156;;;;;;;;;;;;;;
1.048271;16132500;126;;;;;;;;;;;;;;
1.050771;16135000;125;;;;;;;;;;;;;;
1.053271;16137500;153;;;;;;;;;;;;;;
1.055771;16140000;167;;;;;;;;;;;;;;
1.058271;16142500;172;;;;;;;;;;;;;;
1.060771;16145000;154;16146009;150.615;-476.782;894.03;507.289;-114.887;45.837;16145587;-985.494;-5.327;78.121;1599.501;-179.738;-343.573
1.063271;16147500;0;;;;;;;;;;;;;;
1.065771;16150000;271;;;;;;;;;;;;;;
1.068271;16152500;191;;;;;;;;;;;;;;
1.070771;16155000;167;;;;;;;;;;;;;;
1.073271;16157500;141;;;;;;;;;;;;;;
1.075771;16160000;169;;;;;;;;;;;;;;
1.078271;16162500;172;;;;;;;;;;;;;;
1.080771;16165000;155;;;;;;;;;;;;;;
1.083271;16167500;157;;;;;;;;;;;;;;
1.085771;16170000;157;;;;;;;;;;;;;;
1.088271;16172500;152;;;;;;;;;;;;;;
1.090771;16175000;126;;;;;;;;;;;;;;
1.093271;16177500;137;16177530;150.739;-476.812;894.029;511.675;-113.518;46.17;16177091;-985.434;-5.286;78.144;1599.151;-175.564;-342.144
1.095771;16180000;295;;;;;;;;;;;;;;
1.098271;16182500;202;;;;;;;;;;;;;;
1.100771;16185000;188;;;;;;;;;;;;;;
1.103271;16187500;174;;;;;;;;;;;;;;
1.105771;16190000;138;;;;;;;;;;;;;;
1.108271;16192500;143;;;;;;;;;;;;;;
1.110771;16195000;125;;;;;;;;;;;;;;
1.113271;16197500;154;;;;;;;;;;;;;;
1.115771;16200000;18;;;;;;;;;;;;;;
1.118271;16202500;281;;;;;;;;;;;;;;
1.120771;16205000;190;;;;;;;;;;;;;;
1.123271;16207500;159;;;;;;;;16208596;-985.432;-5.254;78.183;1599.693;-172.036;-342.537
1.125771;16210000;159;16209018;150.833;-476.761;894.071;512.778;-114.842;44.299;;;;;;;
1.128271;16212500;152;;;;;;;;;;;;;;
1.130771;16215000;126;;;;;;;;;;;;;;
1.133271;16217500;135;;;;;;;;;;;;;;
1.135771;16220000;142;;;;;;;;;;;;;;
1.138271;16222500;171;;;;;;;;;;;;;;
1.140771;16225000;316;;;;;;;;;;;;;;
1.143271;16227500;266;;;;;;;;;;;;;;
1.145771;16230000;174;;;;;;;;;;;;;;
1.148271;16232500;139;;;;;;;;;;;;;;
1.150771;16235000;152;;;;;;;;;;;;;;
1.153271;16237500;128;;;;;;;;16238550;-985.454;-5.326;78.141;1594.083;-174.371;-338.535
1.155771;16240000;168;16238989;150.844;-476.726;894.074;509.889;-117.85;46.021;;;;;;;
1.158271;16242500;153;;;;;;;;;;;;;;
1.160771;16245000;155;;;;;;;;;;;;;;
1.163271;16247500;169;;;;;;;;;;;;;;
1.165771;16250000;137;;;;;;;;;;;;;;
1.168271;16252500;363;;;;;;;;;;;;;;
1.170771;16255000;215;;;;;;;;;;;;;;
1.173271;16257500;159;;;;;;;;;;;;;;
1.175771;16260000;172;;;;;;;;;;;;;;
1.178271;16262500;174;;;;;;;;;;;;;;
1.180771;16265000;154;;;;;;;;;;;;;;
1.183271;16267500;151;;;;;;;;;;;;;;
1.185771;16270000;137;16270392;150.774;-476.655;894.084;504.52;-116.332;49.408;16269969;-985.451;-5.341;78.126;1593.567;-176.153;-336.046
1.188271;16272500;151;;;;;;;;;;;;;;
1.190771;16275000;124;;;;;;;;;;;;;;
1.193271;16277500;136;;;;;;;;;;;;;;
1.195771;16280000;143;;;;;;;;;;;;;;
1.198271;16282500;153;;;;;;;;;;;;;;
1.200771;16285000;330;;;;;;;;;;;;;;
1.203271;16287500;204;;;;;;;;;;;;;;
1.205771;16290000;152;;;;;;;;;;;;;;
1.208271;16292500;153;;;;;;;;;;;;;;
1.210771;16295000;151;;;;;;;;;;;;;;
1.213271;16297500;135;;;;;;;;;;;;;;
1.215771;16300000;143;;;;;;;;;;;;;;
1.218271;16302500;171;16301908;150.83;-476.704;894.086;504.231;-117.953;47.375;16301474;-985.558;-5.434;78.142;1592.201;-174.783;-333.244
1.220771;16305000;171;;;;;;;;;;;;;;
1.223271;16307500;171;;;;;;;;;;;;;;
1.225771;16310000;155;;;;;;;;;;;;;;
1.228271;16312500;127;;;;;;;;;;;;;;
1.230771;16315000;347;;;;;;;;;;;;;;
1.233271;16317500;264;;;;;;;;;;;;;;
1.235771;16320000;205;;;;;;;;;;;;;;
1.238271;16322500;187;;;;;;;;;;;;;;
1.240771;16325000;158;;;;;;;;;;;;;;
1.243271;16327500;171;;;;;;;;;;;;;;
1.245771;16330000;155;;;;;;;;;;;;;;
1.248271;16332500;152;16333412;150.919;-476.64;894.113;505.27;-118.181;46.319;16332977;-985.544;-5.473;78.17;1592.216;-174.356;-334.519
1.250771;16335000;126;;;;;;;;;;;;;;
1.253271;16337500;154;;;;;;;;;;;;;;
1.255771;16340000;166;;;;;;;;;;;;;;
1.258271;16342500;170;;;;;;;;;;;;;;
1.260771;16345000;18;;;;;;;;;;;;;;
1.263271;16347500;251;;;;;;;;;;;;;;
1.265771;16350000;200;;;;;;;;;;;;;;
1.268271;16352500;157;;;;;;;;;;;;;;
1.270771;16355000;127;;;;;;;;;;;;;;
1.273271;16357500;151;;;;;;;;;;;;;;
1.275771;16360000;149;;;;;;;;;;;;;;
1.278271;16362500;173;;;;;;;;;;;;;;
1.280771;16365000;156;16364915;150.767;-476.708;894.096;506.694;-114.897;50.128;16364483;-985.567;-5.523;78.153;1592.23;-171.763;-330.481
1.283271;16367500;144;;;;;;;;;;;;;;
1.285771;16370000;156;;;;;;;;;;;;;;
1.288271;16372500;125;;;;;;;;;;;;;;
1.290771;16375000;143;;;;;;;;;;;;;;
1.293271;16377500;315;;;;;;;;;;;;;;
1.295771;16380000;216;;;;;;;;;;;;;;
1.298271;16382500;182;;;;;;;;;;;;;;
1.300771;16385000;160;;;;;;;;;;;;;;
1.303271;16387500;172;;;;;;;;;;;;;;
1.305771;16390000;155;;;;;;;;;;;;;;
1.308271;16392500;125;;;;;;;;;;;;;;
1.310771;16395000;125;16394869;150.902;-476.827;894.117;509.359;-114.839;46.746;16394439;-985.546;-5.466;78.186;1587.431;-169.737;-330.144
1.313271;16397500;139;;;;;;;;;;;;;;
1.315771;16400000;170;;;;;;;;;;;;;;
1.318271;16402500;155;;;;;;;;;;;;;;
1.320771;16405000;184;;;;;;;;;;;;;;
1.323271;16407500;176;;;;;;;;;;;;;;
1.325771;16410000;264;;;;;;;;;;;;;;
1.328271;16412500;190;;;;;;;;;;;;;;
1.330771;16415000;143;;;;;;;;;;;;;;
1.333271;16417500;158;16416995;150.982;-476.751;894.081;511.891;-114.347;41.784;16416564;-985.508;-5.504;78.174;1581.997;-168.251;-328.074
1.335771;16420000;152;;;;;;;;;;;;;;
1.338271;16422500;155;;;;;;;;;;;;;;
1.340771;16425000;173;;;;;;;;;;;;;;
1.343271;16427500;143;;;;;;;;;;;;;;
1.345771;16430000;155;;;;;;;;;;;;;;
1.348271;16432500;124;;;;;;;;;;;;;;
1.350771;16435000;124;;;;;;;;;;;;;;
1.353271;16437500;128;;;;;;;;;;;;;;
1.355771;16440000;390;;;;;;;;;;;;;;
1.358271;16442500;264;;;;;;;;;;;;;;
1.360771;16445000;187;;;;;;;;;;;;;;
1.363271;16447500;156;16448324;150.991;-476.795;894.09;509.484;-116.067;40.132;16447894;-985.319;-5.454;78.103;1580.772;-166.838;-328.733
1.365771;16450000;140;;;;;;;;;;;;;;
1.368271;16452500;125;;;;;;;;;;;;;;
1.370771;16455000;143;;;;;;;;;;;;;;
1.373271;16457500;126;;;;;;;;;;;;;;
1.375771;16460000;144;;;;;;;;;;;;;;
1.378271;16462500;156;;;;;;;;;;;;;;
1.380771;16465000;156;;;;;;;;;;;;;;
1.383271;16467500;170;;;;;;;;;;;;;;
1.385771;16470000;154;;;;;;;;;;;;;;
1.388271;16472500;299;;;;;;;;;;;;;;
1.390771;16475000;182;;;;;;;;;;;;;;
1.393271;16477500;170;16478282;150.981;-476.746;894.105;507.635;-115.077;42.938;16477850;-985.366;-5.371;78.089;1576.983;-167.684;-327.171
1.395771;16480000;172;;;;;;;;;;;;;;
1.398271;16482500;156;;;;;;;;;;;;;;
1.400771;16485000;174;;;;;;;;;;;;;;
1.403271;16487500;153;;;;;;;;;;;;;;
1.405771;16490000;139;;;;;;;;;;;;;;
1.408271;16492500;137;;;;;;;;;;;;;;
1.410771;16495000;128;;;;;;;;;;;;;;
1.413271;16497500;155;;;;;;;;;;;;;;
1.415771;16500000;151;;;;;;;;;;;;;;
1.418271;16502500;326;;;;;;;;;;;;;;
1.420771;16505000;214;;;;;;;;;;;;;;
1.423271;16507500;169;;;;;;;;;;;;;;
1.425771;16510000;159;16509785;150.929;-476.656;894.015;503.691;-117.635;41.666;16509355;-985.404;-5.413;78.101;1580.384;-170.674;-326.563
1.428271;16512500;126;;;;;;;;;;;;;;
1.430771;16515000;150;;;;;;;;;;;;;;
1.433271;16517500;158;;;;;;;;;;;;;;
1.435771;16520000;169;;;;;;;;;;;;;;
1.438271;16522500;0;;;;;;;;;;;;;;
1.440771;16525000;283;;;;;;;;;;;;;;
1.443271;16527500;190;;;;;;;;;;;;;;
1.445771;16530000;154;;;;;;;;;;;;;;
1.448271;16532500;154;;;;;;;;;;;;;;
1.450771;16535000;153;;;;;;;;;;;;;;
1.453271;16537500;136;;;;;;;;;;;;;;
1.455771;16540000;169;;;;;;;;16540858;-985.409;-5.362;78.204;1576.615;-170.453;-325.11
1.458271;16542500;174;16541292;150.965;-476.625;893.997;501.256;-118.753;42.645;;;;;;;
1.460771;16545000;174;;;;;;;;;;;;;;
1.463271;16547500;170;;;;;;;;;;;;;;
1.465771;16550000;137;;;;;;;;;;;;;;
1.468271;16552500;125;;;;;;;;;;;;;;
1.470771;16555000;343;;;;;;;;;;;;;;
1.473271;16557500;222;;;;;;;;;;;;;;
1.475771;16560000;172;;;;;;;;;;;;;;
1.478271;16562500;157;;;;;;;;;;;;;;
1.480771;16565000;156;;;;;;;;;;;;;;
1.483271;16567500;169;;;;;;;;;;;;;;
1.485771;16570000;156;;;;;;;;;;;;;;
1.488271;16572500;125;16572792;150.895;-476.633;893.961;503.318;-115.878;45.326;16572364;-985.518;-5.283;78.21;1581.347;-169.368;-327.229
1.490771;16575000;125;;;;;;;;;;;;;;
1.493271;16577500;138;;;;;;;;;;;;;;
1.495771;16580000;142;;;;;;;;;;;;;;
1.498271;16582500;154;;;;;;;;;;;;;;
1.500771;16585000;359;;;;;;;;;;;;;;
1.503271;16587500;223;;;;;;;;;;;;;;
1.505771;16590000;167;;;;;;;;;;;;;;
1.508271;16592500;138;;;;;;;;;;;;;;
1.510771;16595000;152;;;;;;;;;;;;;;
1.513271;16597500;137;;;;;;;;;;;;;;
1.515771;16600000;142;;;;;;;;;;;;;;
1.518271;16602500;172;;;;;;;;;;;;;;
1.520771;16605000;155;16604303;150.939;-476.682;893.994;502.215;-118.397;48.309;16603869;-985.542;-5.312;78.179;1584.092;-169.65;-327.493
1.523271;16607500;144;;;;;;;;;;;;;;
1.525771;16610000;136;;;;;;;;;;;;;;
1.528271;16612500;125;;;;;;;;;;;;;;
1.530771;16615000;151;;;;;;;;;;;;;;
1.533271;16617500;283;;;;;;;;;;;;;;
1.535771;16620000;201;;;;;;;;;;;;;;
1.538271;16622500;172;;;;;;;;;;;;;;
1.540771;16625000;167;;;;;;;;;;;;;;
1.543271;16627500;170;;;;;;;;;;;;;;
1.545771;16630000;156;;;;;;;;;;;;;;
1.548271;16632500;135;;;;;;;;;;;;;;
1.550771;16635000;138;16634253;151.09;-481.402;881.222;1014.354;197.273;206.019;16633823;-985.48;-5.388;78.192;1595.012;-169.48;-330.806
1.553271;16637500;139;;;;;;;;;;;;;;
1.555771;16640000;154;;;;;;;;;;;;;;
1.558271;16642500;173;;;;;;;;;;;;;;
1.560771;16645000;156;;;;;;;;;;;;;;
1.563271;16647500;410;;;;;;;;;;;;;;
1.565771;16650000;252;;;;;;;;;;;;;;
1.568271;16652500;157;;;;;;;;;;;;;;
1.570771;16655000;158;;;;;;;;16656036;-983.859;-7.455;75.954;1503.011;-32.381;-351.89
1.573271;16657500;139;16656468;142.004;-479.689;885.479;8773.012;484.472;-269.345;;;;;;;
1.575771;16660000;170;;;;;;;;;;;;;;
1.578271;16662500;173;;;;;;;;;;;;;;
1.580771;16665000;155;;;;;;;;;;;;;;
1.583271;16667500;152;;;;;;;;;;;;;;
1.585771;16670000;156;;;;;;;;;;;;;;
1.588271;16672500;135;;;;;;;;;;;;;;
1.590771;16675000;154;;;;;;;;;;;;;;
1.593271;16677500;137;;;;;;;;;;;;;;
1.595771;16680000;320;;;;;;;;;;;;;;
1.598271;16682500;238;;;;;;;;;;;;;;
1.600771;16685000;185;;;;;;;;;;;;;;
1.603271;16687500;186;16688058;143.06;-464.659;890.029;14168.424;400.311;123.435;16687628;-981.777;-6.515;75.957;1013.548;-139.699;-297.108
1.605771;16690000;141;;;;;;;;;;;;;;
1.608271;16692500;154;;;;;;;;;;;;;;
1.610771;16695000;153;;;;;;;;;;;;;;
1.613271;16697500;138;;;;;;;;;;;;;;
1.615771;16700000;170;;;;;;;;;;;;;;
1.618271;16702500;157;;;;;;;;;;;;;;
1.620771;16705000;157;;;;;;;;;;;;;;
1.623271;16707500;170;;;;;;;;;;;;;;
1.625771;16710000;240;;;;;;;;;;;;;;
1.628271;16712500;266;;;;;;;;;;;;;;
1.630771;16715000;169;;;;;;;;;;;;;;
1.633271;16717500;143;16718189;142.794;-462.477;898.342;15591.503;403.045;108.513;16717757;-978.23;-7.879;77.063;639.996;-352.339;-251.628
1.635771;16720000;170;;;;;;;;;;;;;;
1.638271;16722500;156;;;;;;;;;;;;;;
1.640771;16725000;173;;;;;;;;;;;;;;
1.643271;16727500;143;;;;;;;;;;;;;;
1.645771;16730000;155;;;;;;;;;;;;;;
1.648271;16732500;124;;;;;;;;;;;;;;
1.650771;16735000;150;;;;;;;;;;;;;;
1.653271;16737500;137;;;;;;;;;;;;;;
1.655771;16740000;334;;;;;;;;;;;;;;
1.658271;16742500;296;;;;;;;;;;;;;;
1.660771;16745000;200;;;;;;;;;;;;;;
1.663271;16747500;184;;;;;;;;;;;;;;
1.665771;16750000;141;16749784;145.64;-448.522;902.889;11397.24;-512.67;1351.275;16749348;-978.174;-9.29;78.962;879.684;-366.222;-231.172
1.668271;16752500;136;;;;;;;;;;;;;;
1.670771;16755000;153;;;;;;;;;;;;;;
1.673271;16757500;156;;;;;;;;;;;;;;
1.675771;16760000;142;;;;;;;;;;;;;;
1.678271;16762500;272;;;;;;;;;;;;;;
1.680771;16765000;264;;;;;;;;;;;;;;
1.683271;16767500;207;;;;;;;;;;;;;;
1.685771;16770000;153;;;;;;;;;;;;;;
1.688271;16772500;137;;;;;;;;;;;;;;
1.690771;16775000;126;;;;;;;;;;;;;;
1.693271;16777500;136;;;;;;;;;;;;;;
1.695771;16780000;171;;;;;;;;16781113;-976.918;-9.039;78.229;950.324;-413.974;-218.738
1.698271;16782500;156;16781545;145.196;-443.133;907.448;7643.69;-1071.536;1187.899;;;;;;;
1.700771;16785000;156;;;;;;;;;;;;;;
1.703271;16787500;151;;;;;;;;;;;;;;
1.705771;16790000;137;;;;;;;;;;;;;;
1.708271;16792500;152;;;;;;;;;;;;;;
1.710771;16795000;346;;;;;;;;;;;;;;
1.713271;16797500;206;;;;;;;;;;;;;;
1.715771;16800000;170;;;;;;;;;;;;;;
1.718271;16802500;159;;;;;;;;;;;;;;
1.720771;16805000;183;;;;;;;;;;;;;;
1.723271;16807500;153;;;;;;;;;;;;;;
1.725771;16810000;137;;;;;;;;;;;;;;
1.728271;16812500;135;16813308;144.585;-442.9;918.354;6201.881;-4563.459;262.692;16812878;-978.33;-8.136;79.521;1029.683;-439.65;-213.926
1.730771;16815000;152;;;;;;;;;;;;;;
1.733271;16817500;155;;;;;;;;;;;;;;
1.735771;16820000;169;;;;;;;;;;;;;;
1.738271;16822500;154;;;;;;;;;;;;;;
1.740771;16825000;351;;;;;;;;;;;;;;
1.743271;16827500;248;;;;;;;;;;;;;;
1.745771;16830000;182;;;;;;;;;;;;;;
1.748271;16832500;152;;;;;;;;;;;;;;
1.750771;16835000;154;;;;;;;;;;;;;;
1.753271;16837500;137;;;;;;;;;;;;;;
1.755771;16840000;168;;;;;;;;;;;;;;
1.758271;16842500;156;;;;;;;;;;;;;;
1.760771;16845000;174;16845081;145.829;-444.478;923.481;4609.912;-10132.162;-1917.381;16844642;-979.556;-8.297;79.235;1109.886;-411.542;-201.917
1.763271;16847500;170;;;;;;;;;;;;;;
1.765771;16850000;139;;;;;;;;;;;;;;
1.768271;16852500;153;;;;;;;;;;;;;;
1.770771;16855000;127;;;;;;;;;;;;;;
1.773271;16857500;302;;;;;;;;;;;;;;
1.775771;16860000;219;;;;;;;;;;;;;;
1.778271;16862500;172;;;;;;;;;;;;;;
1.780771;16865000;182;;;;;;;;;;;;;;
1.783271;16867500;152;;;;;;;;;;;;;;
1.785771;16870000;154;;;;;;;;;;;;;;
1.788271;16872500;143;;;;;;;;;;;;;;
1.790771;16875000;151;16875542;151.829;-442.988;923.948;2544.541;-16758.117;-4466.637;16875120;-978.127;-8.51;79.153;1151.955;-462.715;-195.321
1.793271;16877500;154;;;;;;;;;;;;;;
1.795771;16880000;144;;;;;;;;;;;;;;
1.798271;16882500;154;;;;;;;;;;;;;;
1.800771;16885000;170;;;;;;;;;;;;;;
1.803271;16887500;317;;;;;;;;;;;;;;
1.805771;16890000;264;;;;;;;;;;;;;;
1.808271;16892500;158;;;;;;;;;;;;;;
1.810771;16895000;137;;;;;;;;;;;;;;
1.813271;16897500;156;;;;;;;;;;;;;;
1.815771;16900000;153;;;;;;;;;;;;;;
1.818271;16902500;157;;;;;;;;;;;;;;
1.820771;16905000;155;;;;;;;;;;;;;;
1.823271;16907500;169;16907579;163.989;-444.207;921.432;327.814;-24554.273;-7410.805;16907145;-979.766;-8.713;78.782;1549.357;-296.954;-216.618
1.825771;16910000;157;;;;;;;;;;;;;;
1.828271;16912500;152;;;;;;;;;;;;;;
1.830771;16915000;135;;;;;;;;;;;;;;
1.833271;16917500;138;;;;;;;;;;;;;;
1.835771;16920000;378;;;;;;;;;;;;;;
1.838271;16922500;254;;;;;;;;;;;;;;
1.840771;16925000;204;;;;;;;;;;;;;;
1.843271;16927500;154;;;;;;;;;;;;;;
1.845771;16930000;138;;;;;;;;;;;;;;
1.848271;16932500;150;;;;;;;;;;;;;;
1.850771;16935000;144;;;;;;;;;;;;;;
1.853271;16937500;135;;;;;;;;;;;;;;
1.855771;16940000;142;16939518;177.329;-441.871;914.425;-1632.827;-33270.934;-10089.201;16939082;-977.394;-5.441;81.266;2447.951;-195.044;-291.974
1.858271;16942500;154;;;;;;;;;;;;;;
1.860771;16945000;174;;;;;;;;;;;;;;
1.863271;16947500;152;;;;;;;;;;;;;;
1.865771;16950000;137;;;;;;;;;;;;;;
1.868271;16952500;296;;;;;;;;;;;;;;
1.870771;16955000;186;;;;;;;;;;;;;;
1.873271;16957500;172;;;;;;;;;;;;;;
1.875771;16960000;153;;;;;;;;;;;;;;
1.878271;16962500;156;;;;;;;;;;;;;;
1.880771;16965000;154;;;;;;;;;;;;;;
1.883271;16967500;144;;;;;;;;;;;;;;
1.885771;16970000;155;;;;;;;;;;;;;;
1.888271;16972500;144;16971715;196.138;-435.832;906.249;-2553.061;-41235.449;-12790.304;16971283;-976.824;-5.846;80.711;2460.304;68.895;-365.313
1.890771;16975000;152;;;;;;;;;;;;;;
1.893271;16977500;137;;;;;;;;;;;;;;
1.895771;16980000;139;;;;;;;;;;;;;;
1.898271;16982500;344;;;;;;;;;;;;;;
1.900771;16985000;224;;;;;;;;;;;;;;
1.903271;16987500;189;;;;;;;;;;;;;;
1.905771;16990000;160;;;;;;;;;;;;;;
1.908271;16992500;155;;;;;;;;;;;;;;
1.910771;16995000;128;;;;;;;;;;;;;;
1.913271;16997500;138;;;;;;;;;;;;;;
1.915771;17000000;151;;;;;;;;;;;;;;
1.918271;17002500;174;17003651;216.502;-433.927;895.073;-3869.595;-48058.426;-16016.976;17003221;-977.935;-5.956;76.358;2104.101;113.576;-364.11
1.920771;17005000;174;;;;;;;;;;;;;;
1.923271;17007500;151;;;;;;;;;;;;;;
1.925771;17010000;138;;;;;;;;;;;;;;
1.928271;17012500;124;;;;;;;;;;;;;;
1.930771;17015000;316;;;;;;;;;;;;;;
1.933271;17017500;218;;;;;;;;;;;;;;
1.935771;17020000;170;;;;;;;;;;;;;;
1.938271;17022500;159;;;;;;;;;;;;;;
1.940771;17025000;174;;;;;;;;;;;;;;
1.943271;17027500;168;;;;;;;;;;;;;;
1.945771;17030000;155;;;;;;;;;;;;;;
1.948271;17032500;124;;;;;;;;;;;;;;
1.950771;17035000;152;17034228;237.787;-420.526;881.551;-4370.865;-53557.629;-18136.439;17033783;-979.742;-3.901;73.18;959.396;77.272;-270.655
1.953271;17037500;156;;;;;;;;;;;;;;
1.955771;17040000;171;;;;;;;;;;;;;;
1.958271;17042500;172;;;;;;;;;;;;;;
1.960771;17045000;121;;;;;;;;;;;;;;
1.963271;17047500;296;;;;;;;;;;;;;;
1.965771;17050000;202;;;;;;;;;;;;;;
1.968271;17052500;158;;;;;;;;;;;;;;
1.970771;17055000;154;;;;;;;;;;;;;;
1.973271;17057500;137;17056766;269.019;-422.082;860.013;-4424.009;-58039.434;-19688.805;17056344;-978.841;-4.475;70.534;296.301;102.283;-198.497
1.975771;17060000;144;;;;;;;;;;;;;;
1.978271;17062500;174;;;;;;;;;;;;;;
1.980771;17065000;173;;;;;;;;;;;;;;
1.983271;17067500;169;;;;;;;;;;;;;;
1.985771;17070000;136;;;;;;;;;;;;;;
1.988271;17072500;127;;;;;;;;;;;;;;
1.990771;17075000;124;;;;;;;;;;;;;;
1.993271;17077500;19;;;;;;;;;;;;;;
1.995771;17080000;265;;;;;;;;;;;;;;
1.998271;17082500;199;;;;;;;;;;;;;;
2.000771;17085000;168;;;;;;;;;;;;;;
2.003271;17087500;152;;;;;;;;17088369;-977.985;-6.649;70.759;-16.014;11.857;-188.572
2.005771;17090000;138;17088809;291.564;-416.759;844.303;-1526.621;-63264.461;-20803.926;;;;;;;
2.008271;17092500;125;;;;;;;;;;;;;;
2.010771;17095000;126;;;;;;;;;;;;;;
2.013271;17097500;157;;;;;;;;;;;;;;
2.015771;17100000;168;;;;;;;;;;;;;;
2.018271;17102500;154;;;;;;;;;;;;;;
2.020771;17105000;153;;;;;;;;;;;;;;
2.023271;17107500;150;;;;;;;;;;;;;;
2.025771;17110000;394;;;;;;;;;;;;;;
2.028271;17112500;235;;;;;;;;;;;;;;
2.030771;17115000;174;;;;;;;;;;;;;;
2.033271;17117500;140;;;;;;;;;;;;;;
2.035771;17120000;151;17119186;309.45;-406.816;822.029;539.46;-67449.484;-22643.791;17118758;-978.16;-6.249;68.008;375.474;194.139;-220.268
2.038271;17122500;172;;;;;;;;;;;;;;
2.040771;17125000;152;;;;;;;;;;;;;;
2.043271;17127500;143;;;;;;;;;;;;;;
2.045771;17130000;137;;;;;;;;;;;;;;
2.048271;17132500;124;;;;;;;;;;;;;;
2.050771;17135000;123;;;;;;;;;;;;;;
2.053271;17137500;137;;;;;;;;;;;;;;
2.055771;17140000;368;;;;;;;;;;;;;;
2.058271;17142500;268;;;;;;;;;;;;;;
2.060771;17145000;201;;;;;;;;;;;;;;
2.063271;17147500;157;;;;;;;;;;;;;;
2.065771;17150000;140;17150876;335.775;-399.736;794.11;560.174;-71181.57;-22436.477;17150437;-979.309;-6.473;65.772;-428.612;414.557;-199.63
2.068271;17152500;151;;;;;;;;;;;;;;
2.070771;17155000;126;;;;;;;;;;;;;;
2.073271;17157500;137;;;;;;;;;;;;;;
2.075771;17160000;142;;;;;;;;;;;;;;
2.078271;17162500;254;;;;;;;;;;;;;;
2.080771;17165000;267;;;;;;;;;;;;;;
2.083271;17167500;205;;;;;;;;;;;;;;
2.085771;17170000;170;;;;;;;;;;;;;;
2.088271;17172500;136;;;;;;;;;;;;;;
2.090771;17175000;152;;;;;;;;;;;;;;
2.093271;17177500;140;;;;;;;;;;;;;;
2.095771;17180000;151;;;;;;;;;;;;;;
2.098271;17182500;174;17182798;364.675;-391.638;759.242;355.853;-73846.805;-21633.59;17182375;-978.57;-6.113;58.726;-1860.994;452.891;-134.961
2.100771;17185000;173;;;;;;;;;;;;;;
2.103271;17187500;169;;;;;;;;;;;;;;
2.105771;17190000;139;;;;;;;;;;;;;;
2.108271;17192500;155;;;;;;;;;;;;;;
2.110771;17195000;410;;;;;;;;;;;;;;
2.113271;17197500;255;;;;;;;;;;;;;;
2.115771;17200000;203;;;;;;;;;;;;;;
2.118271;17202500;168;;;;;;;;;;;;;;
2.120771;17205000;175;;;;;;;;;;;;;;
2.123271;17207500;169;;;;;;;;;;;;;;
2.125771;17210000;138;;;;;;;;;;;;;;
2.128271;17212500;134;;;;;;;;;;;;;;
2.130771;17215000;152;17214846;397.23;-384.897;722.365;1278.248;-74893.023;-21222.16;17214401;-977.722;-6.137;62.152;-3883.257;440.747;-119.025
2.133271;17217500;156;;;;;;;;;;;;;;
2.135771;17220000;169;;;;;;;;;;;;;;
2.138271;17222500;153;;;;;;;;;;;;;;
2.140771;17225000;0;;;;;;;;;;;;;;
2.143271;17227500;281;;;;;;;;;;;;;;
2.145771;17230000;190;;;;;;;;;;;;;;
2.148271;17232500;158;;;;;;;;;;;;;;
2.150771;17235000;137;;;;;;;;;;;;;;
2.153271;17237500;156;;;;;;;;;;;;;;
2.155771;17240000;151;;;;;;;;;;;;;;
2.158271;17242500;171;;;;;;;;;;;;;;
2.160771;17245000;172;;;;;;;;;;;;;;
2.163271;17247500;141;17246942;424.277;-378.962;691.023;1395.898;-77398.5;-20289.24;17246511;-977.556;-8.41;64.724;-3882.469;327.71;-4.574
2.165771;17250000;155;;;;;;;;;;;;;;
2.168271;17252500;125;;;;;;;;;;;;;;
2.170771;17255000;127;;;;;;;;;;;;;;
2.173271;17257500;360;;;;;;;;;;;;;;
2.175771;17260000;234;;;;;;;;;;;;;;
2.178271;17262500;203;;;;;;;;;;;;;;
2.180771;17265000;167;;;;;;;;;;;;;;
2.183271;17267500;151;;;;;;;;;;;;;;
2.185771;17270000;137;;;;;;;;;;;;;;
2.188271;17272500;125;;;;;;;;;;;;;;
2.190771;17275000;153;;;;;;;;;;;;;;
2.193271;17277500;155;17277166;450.467;-377.32;662.944;1153.728;-77706.258;-19447.152;17276729;-979.022;-7.929;65.678;-3349.283;367.324;-9.158
2.195771;17280000;144;;;;;;;;;;;;;;
2.198271;17282500;155;;;;;;;;;;;;;;
2.200771;17285000;154;;;;;;;;;;;;;;
2.203271;17287500;169;;;;;;;;;;;;;;
2.205771;17290000;332;;;;;;;;;;;;;;
2.208271;17292500;188;;;;;;;;;;;;;;
2.210771;17295000;152;;;;;;;;;;;;;;
2.213271;17297500;141;;;;;;;;;;;;;;
2.215771;17300000;171;;;;;;;;;;;;;;
2.218271;17302500;172;;;;;;;;;;;;;;
2.220771;17305000;153;;;;;;;;;;;;;;
2.223271;17307500;141;;;;;;;;17308668;-979.591;-8.106;64.731;-3242.631;462.27;-33.638
2.225771;17310000;137;17309098;477.646;-371.715;626.967;1320.479;-77573.82;-17701.295;;;;;;;
2.228271;17312500;125;;;;;;;;;;;;;;
2.230771;17315000;126;;;;;;;;;;;;;;
2.233271;17317500;138;;;;;;;;;;;;;;
2.235771;17320000;144;;;;;;;;;;;;;;
2.238271;17322500;300;;;;;;;;;;;;;;
2.240771;17325000;205;;;;;;;;;;;;;;
2.243271;17327500;168;;;;;;;;;;;;;;
2.245771;17330000;141;;;;;;;;;;;;;;
2.248271;17332500;127;;;;;;;;;;;;;;
2.250771;17335000;153;;;;;;;;;;;;;;
2.253271;17337500;138;;;;;;;;;;;;;;
2.255771;17340000;168;17340958;499.117;-365.512;595.161;2063.83;-77860.562;-15650.73;17340518;-980.845;-8.823;65.02;-3124.687;367.844;9.169
2.258271;17342500;154;;;;;;;;;;;;;;
2.260771;17345000;171;;;;;;;;;;;;;;
2.263271;17347500;169;;;;;;;;;;;;;;
2.265771;17350000;136;;;;;;;;;;;;;;
2.268271;17352500;1;;;;;;;;;;;;;;
2.270771;17355000;255;;;;;;;;;;;;;;
2.273271;17357500;200;;;;;;;;;;;;;;
2.275771;17360000;173;;;;;;;;;;;;;;
2.278271;17362500;154;;;;;;;;;;;;;;
2.280771;17365000;154;;;;;;;;;;;;;;
2.283271;17367500;143;;;;;;;;;;;;;;
2.285771;17370000;138;;;;;;;;;;;;;;
2.288271;17372500;152;17372799;516.288;-365.519;570.978;2077.451;-77572.969;-14544.006;17372371;-980.242;-8.046;66.228;-2661.328;321.452;19.211
2.290771;17375000;128;;;;;;;;;;;;;;
2.293271;17377500;155;;;;;;;;;;;;;;
2.295771;17380000;165;;;;;;;;;;;;;;
2.298271;17382500;153;;;;;;;;;;;;;;
2.300771;17385000;304;;;;;;;;;;;;;;
2.303271;17387500;190;;;;;;;;;;;;;;
2.305771;17390000;167;;;;;;;;;;;;;;
2.308271;17392500;153;;;;;;;;;;;;;;
2.310771;17395000;150;;;;;;;;;;;;;;
2.313271;17397500;154;;;;;;;;;;;;;;
2.315771;17400000;142;;;;;;;;;;;;;;
2.318271;17402500;170;;;;;;;;;;;;;;
2.320771;17405000;152;17404750;542.256;-368.062;534.725;2276.766;-76101.008;-13143.056;17404310;-981.043;-5.966;63.972;-2582.074;376.692;-24.625
2.323271;17407500;141;;;;;;;;;;;;;;
2.325771;17410000;154;;;;;;;;;;;;;;
2.328271;17412500;125;;;;;;;;;;;;;;
2.330771;17415000;6;;;;;;;;;;;;;;
2.333271;17417500;269;;;;;;;;;;;;;;
2.335771;17420000;186;;;;;;;;;;;;;;
2.338271;17422500;169;;;;;;;;;;;;;;
2.340771;17425000;157;;;;;;;;;;;;;;
2.343271;17427500;169;;;;;;;;;;;;;;
2.345771;17430000;137;;;;;;;;;;;;;;
2.348271;17432500;143;;;;;;;;;;;;;;
2.350771;17435000;126;17435215;556.794;-363.28;505.219;2113.49;-75867.266;-11002.777;17434785;-980.193;-7.846;64.561;-2606.532;151.795;20.357
2.353271;17437500;137;;;;;;;;;;;;;;
2.355771;17440000;168;;;;;;;;;;;;;;
2.358271;17442500;157;;;;;;;;;;;;;;
2.360771;17445000;174;;;;;;;;;;;;;;
2.363271;17447500;363;;;;;;;;;;;;;;
2.365771;17450000;218;;;;;;;;;;;;;;
2.368271;17452500;173;;;;;;;;;;;;;;
2.370771;17455000;140;;;;;;;;;;;;;;
2.373271;17457500;138;;;;;;;;;;;;;;
2.375771;17460000;143;;;;;;;;;;;;;;
2.378271;17462500;153;;;;;;;;;;;;;;
2.380771;17465000;171;;;;;;;;;;;;;;
2.383271;17467500;167;17467162;574.686;-357.273;472.858;2145.628;-73991.898;-9485.326;17466724;-979.825;-8.466;64.945;-2512.081;220.768;4.901
2.385771;17470000;137;;;;;;;;;;;;;;
2.388271;17472500;124;;;;;;;;;;;;;;
2.390771;17475000;126;;;;;;;;;;;;;;
2.393271;17477500;155;;;;;;;;;;;;;;
2.395771;17480000;344;;;;;;;;;;;;;;
2.398271;17482500;222;;;;;;;;;;;;;;
2.400771;17485000;173;;;;;;;;;;;;;;
2.403271;17487500;153;;;;;;;;;;;;;;
2.405771;17490000;156;;;;;;;;;;;;;;
2.408271;17492500;152;;;;;;;;;;;;;;
2.410771;17495000;135;;;;;;;;;;;;;;
2.413271;17497500;139;;;;;;;;17498490;-978.956;-9.568;66.742;-2156.352;135.792;12.531
2.415771;17500000;152;17498920;591.037;-353.775;434.02;2009.034;-71102.992;-8954.622;;;;;;;
2.418271;17502500;155;;;;;;;;;;;;;;
2.420771;17505000;155;;;;;;;;;;;;;;
2.423271;17507500;149;;;;;;;;;;;;;;
2.425771;17510000;154;;;;;;;;;;;;;;
2.428271;17512500;288;;;;;;;;;;;;;;
2.430771;17515000;200;;;;;;;;;;;;;;
2.433271;17517500;170;;;;;;;;;;;;;;
2.435771;17520000;152;;;;;;;;;;;;;;
2.438271;17522500;174;;;;;;;;;;;;;;
2.440771;17525000;170;;;;;;;;;;;;;;
2.443271;17527500;143;;;;;;;;;;;;;;
2.445771;17530000;154;17530693;607.638;-349.561;402.211;1786.52;-67504.531;-9228.766;17530253;-978.87;-11.298;68.925;-1799.159;7.377;15.405
2.448271;17532500;125;;;;;;;;;;;;;;
2.450771;17535000;124;;;;;;;;;;;;;;
2.453271;17537500;153;;;;;;;;;;;;;;
2.455771;17540000;142;;;;;;;;;;;;;;
2.458271;17542500;317;;;;;;;;;;;;;;
2.460771;17545000;216;;;;;;;;;;;;;;
2.463271;17547500;185;;;;;;;;;;;;;;
2.465771;17550000;158;;;;;;;;;;;;;;
2.468271;17552500;127;;;;;;;;;;;;;;
2.470771;17555000;142;;;;;;;;;;;;;;
2.473271;17557500;154;;;;;;;;;;;;;;
2.475771;17560000;168;;;;;;;;;;;;;;
2.478271;17562500;171;17562454;627.221;-348.309;373.854;1419.819;-61399.742;-9363.64;17562018;-977.201;-11.129;70.506;-1579.701;39.821;-40.053
2.480771;17565000;171;;;;;;;;;;;;;;
2.483271;17567500;140;;;;;;;;;;;;;;
2.485771;17570000;154;;;;;;;;;;;;;;
2.488271;17572500;142;;;;;;;;;;;;;;
2.490771;17575000;286;;;;;;;;;;;;;;
2.493271;17577500;201;;;;;;;;;;;;;;
2.495771;17580000;158;;;;;;;;;;;;;;
2.498271;17582500;174;;;;;;;;;;;;;;
2.500771;17585000;171;;;;;;;;;;;;;;
2.503271;17587500;159;;;;;;;;;;;;;;
2.505771;17590000;135;;;;;;;;;;;;;;
2.508271;17592500;142;17592848;642.726;-347.937;345.913;-92.735;-50714.629;-9832.146;17592408;-978.3;-12.018;69.859;-1472.279;14.205;-51.175
2.510771;17595000;142;;;;;;;;;;;;;;
2.513271;17597500;135;;;;;;;;;;;;;;
2.515771;17600000;142;;;;;;;;;;;;;;
2.518271;17602500;154;;;;;;;;;;;;;;
2.520771;17605000;19;;;;;;;;;;;;;;
2.523271;17607500;266;;;;;;;;;;;;;;
2.525771;17610000;170;;;;;;;;;;;;;;
2.528271;17612500;139;;;;;;;;;;;;;;
2.530771;17615000;135;17615309;662.123;-346.437;316.46;-4114.41;-37950.148;-10360.788;17614881;-981.833;-8.727;61.444;-1156.727;117.62;-146.179
2.533271;17617500;157;;;;;;;;;;;;;;
2.535771;17620000;144;;;;;;;;;;;;;;
2.538271;17622500;172;;;;;;;;;;;;;;
2.540771;17625000;152;;;;;;;;;;;;;;
2.543271;17627500;141;;;;;;;;;;;;;;
2.545771;17630000;136;;;;;;;;;;;;;;
2.548271;17632500;126;;;;;;;;;;;;;;
2.550771;17635000;127;;;;;;;;;;;;;;
2.553271;17637500;345;;;;;;;;;;;;;;
2.555771;17640000;222;;;;;;;;;;;;;;
2.558271;17642500;183;;;;;;;;;;;;;;
2.560771;17645000;166;;;;;;;;;;;;;;
2.563271;17647500;144;17647519;682.398;-337.808;294.665;-3752.502;-22640.203;-11246.249;17647079;-980.144;-7.321;59.238;-1593.266;-128.886;-121.808
2.565771;17650000;137;;;;;;;;;;;;;;
2.568271;17652500;125;;;;;;;;;;;;;;
2.570771;17655000;144;;;;;;;;;;;;;;
2.573271;17657500;137;;;;;;;;;;;;;;
2.575771;17660000;150;;;;;;;;;;;;;;
2.578271;17662500;154;;;;;;;;;;;;;;
2.580771;17665000;154;;;;;;;;;;;;;;
2.583271;17667500;169;;;;;;;;;;;;;;
2.585771;17670000;285;;;;;;;;;;;;;;
2.588271;17672500;183;;;;;;;;;;;;;;
2.590771;17675000;151;;;;;;;;;;;;;;
2.593271;17677500;142;17678245;694.54;-339.919;295.853;-1065.002;-7194.943;-10925.874;17677817;-982.664;-5.589;63.053;-2102.915;327.308;-52.717
2.595771;17680000;169;;;;;;;;;;;;;;
2.598271;17682500;171;;;;;;;;;;;;;;
2.600771;17685000;174;;;;;;;;;;;;;;
2.603271;17687500;151;;;;;;;;;;;;;;
2.605771;17690000;157;;;;;;;;;;;;;;
2.608271;17692500;125;;;;;;;;;;;;;;
2.610771;17695000;152;;;;;;;;;;;;;;
2.613271;17697500;138;;;;;;;;;;;;;;
2.615771;17700000;348;;;;;;;;;;;;;;
2.618271;17702500;246;;;;;;;;;;;;;;
2.620771;17705000;176;;;;;;;;;;;;;;
2.623271;17707500;173;;;;;;;;;;;;;;
2.625771;17710000;139;17710282;691.838;-339.924;304.93;2117.686;5426.179;-9736.455;17709842;-985.045;-10.293;69.758;-1904.144;494.692;-302.081
2.628271;17712500;126;;;;;;;;;;;;;;
2.630771;17715000;152;;;;;;;;;;;;;;
2.633271;17717500;138;;;;;;;;;;;;;;
2.635771;17720000;168;;;;;;;;;;;;;;
2.638271;17722500;345;;;;;;;;;;;;;;
2.640771;17725000;218;;;;;;;;;;;;;;
2.643271;17727500;184;;;;;;;;;;;;;;
2.645771;17730000;137;;;;;;;;;;;;;;
2.648271;17732500;141;;;;;;;;;;;;;;
2.650771;17735000;142;;;;;;;;;;;;;;
2.653271;17737500;155;;;;;;;;;;;;;;
2.655771;17740000;157;;;;;;;;;;;;;;
2.658271;17742500;153;17742210;695.554;-348.846;320.269;5645.676;16053.869;-5512.944;17741780;-984.532;-9.052;71.986;-1786.625;542.145;-301.415
2.660771;17745000;169;;;;;;;;;;;;;;
2.663271;17747500;142;;;;;;;;;;;;;;
2.665771;17750000;153;;;;;;;;;;;;;;
2.668271;17752500;141;;;;;;;;;;;;;;
2.670771;17755000;288;;;;;;;;;;;;;;
2.673271;17757500;214;;;;;;;;;;;;;;
2.675771;17760000;157;;;;;;;;;;;;;;
2.678271;17762500;174;;;;;;;;;;;;;;
2.680771;17765000;172;;;;;;;;;;;;;;
2.683271;17767500;140;;;;;;;;;;;;;;
2.685771;17770000;155;;;;;;;;;;;;;;
2.688271;17772500;144;;;;;;;;17773720;-985.167;-9.082;72.98;-1603.668;330.413;-246.532
2.690771;17775000;127;17774157;701.305;-347.258;338.311;12422.018;26972.238;943.266;;;;;;;
2.693271;17777500;138;;;;;;;;;;;;;;
2.695771;17780000;153;;;;;;;;;;;;;;
2.698271;17782500;173;;;;;;;;;;;;;;
2.700771;17785000;350;;;;;;;;;;;;;;
2.703271;17787500;220;;;;;;;;;;;;;;
2.705771;17790000;157;;;;;;;;;;;;;;
2.708271;17792500;137;;;;;;;;;;;;;;
2.710771;17795000;155;;;;;;;;;;;;;;
2.713271;17797500;158;;;;;;;;;;;;;;
2.715771;17800000;170;;;;;;;;;;;;;;
2.718271;17802500;153;;;;;;;;;;;;;;
2.720771;17805000;152;17806002;694.965;-335.025;350.505;22617.668;36649.062;5988.603;17805571;-980.286;-11.379;73.711;-1307.36;12.017;-120.018
2.723271;17807500;158;;;;;;;;;;;;;;
2.725771;17810000;136;;;;;;;;;;;;;;
2.728271;17812500;122;;;;;;;;;;;;;;
2.730771;17815000;126;;;;;;;;;;;;;;
2.733271;17817500;316;;;;;;;;;;;;;;
2.735771;17820000;233;;;;;;;;;;;;;;
2.738271;17822500;175;;;;;;;;;;;;;;
2.740771;17825000;156;;;;;;;;;;;;;;
2.743271;17827500;142;;;;;;;;;;;;;;
2.745771;17830000;126;;;;;;;;;;;;;;
2.748271;17832500;124;;;;;;;;;;;;;;
2.750771;17835000;125;;;;;;;;17835960;-980.255;-17.367;80.474;-1282.242;-166.208;-92.142
2.753271;17837500;137;17836400;684.927;-317.755;380.981;31019.473;42265.484;9215.422;;;;;;;
2.755771;17840000;143;;;;;;;;;;;;;;
2.758271;17842500;153;;;;;;;;;;;;;;
2.760771;17845000;170;;;;;;;;;;;;;;
2.763271;17847500;141;;;;;;;;;;;;;;
2.765771;17850000;272;;;;;;;;;;;;;;
2.768271;17852500;173;;;;;;;;;;;;;;
2.770771;17855000;157;;;;;;;;;;;;;;
2.773271;17857500;141;;;;;;;;;;;;;;
2.775771;17860000;171;;;;;;;;;;;;;;
2.778271;17862500;158;;;;;;;;;;;;;;
2.780771;17865000;155;;;;;;;;;;;;;;
2.783271;17867500;167;17868327;670.591;-308.077;417.088;37377.188;47707.836;12029.775;17867900;-982.976;-17.475;90.365;1246.308;-188.523;-362.285
2.785771;17870000;135;;;;;;;;;;;;;;
2.788271;17872500;144;;;;;;;;;;;;;;
2.790771;17875000;151;;;;;;;;;;;;;;
2.793271;17877500;140;;;;;;;;;;;;;;
2.795771;17880000;285;;;;;;;;;;;;;;
2.798271;17882500;268;;;;;;;;;;;;;;
2.800771;17885000;216;;;;;;;;;;;;;;
2.803271;17887500;175;;;;;;;;;;;;;;
2.805771;17890000;137;;;;;;;;;;;;;;
2.808271;17892500;143;;;;;;;;;;;;;;
2.810771;17895000;126;;;;;;;;;;;;;;
2.813271;17897500;155;;;;;;;;;;;;;;
2.815771;17900000;140;17900452;654.654;-293.052;456.203;42865.328;52208.695;17378.285;17900012;-982.828;-15.491;94.094;4466.555;416.778;-710.358
2.818271;17902500;171;;;;;;;;;;;;;;
2.820771;17905000;170;;;;;;;;;;;;;;
2.823271;17907500;141;;;;;;;;;;;;;;
2.825771;17910000;128;;;;;;;;;;;;;;
2.828271;17912500;362;;;;;;;;;;;;;;
2.830771;17915000;236;;;;;;;;;;;;;;
2.833271;17917500;185;;;;;;;;;;;;;;
2.835771;17920000;154;;;;;;;;;;;;;;
2.838271;17922500;153;;;;;;;;;;;;;;
2.840771;17925000;155;;;;;;;;;;;;;;
2.843271;17927500;142;;;;;;;;;;;;;;
2.845771;17930000;153;;;;;;;;;;;;;;
2.848271;17932500;124;17932466;634.018;-275.374;472.628;45755.062;55018.887;23151.059;17932036;-982.688;-12.703;98.082;7118.477;500.502;-985.465
2.850771;17935000;153;;;;;;;;;;;;;;
2.853271;17937500;157;;;;;;;;;;;;;;
2.855771;17940000;169;;;;;;;;;;;;;;
2.858271;17942500;41;;;;;;;;;;;;;;
2.860771;17945000;252;;;;;;;;;;;;;;
2.863271;17947500;202;;;;;;;;;;;;;;
2.865771;17950000;168;;;;;;;;;;;;;;
2.868271;17952500;128;;;;;;;;;;;;;;
2.870771;17955000;136;;;;;;;;;;;;;;
2.873271;17957500;140;;;;;;;;;;;;;;
2.875771;17960000;170;;;;;;;;;;;;;;
2.878271;17962500;154;;;;;;;;;;;;;;
2.880771;17965000;175;17964500;614.181;-253.638;486.957;49373.559;55680.441;31164.381;17964062;-984.019;-13.056;93.812;7987.991;758.977;-1197.379
2.883271;17967500;143;;;;;;;;;;;;;;
2.885771;17970000;128;;;;;;;;;;;;;;
2.888271;17972500;125;;;;;;;;;;;;;;
2.890771;17975000;367;;;;;;;;;;;;;;
2.893271;17977500;235;;;;;;;;;;;;;;
2.895771;17980000;173;;;;;;;;;;;;;;
2.898271;17982500;158;;;;;;;;;;;;;;
2.900771;17985000;158;;;;;;;;;;;;;;
2.903271;17987500;167;;;;;;;;;;;;;;
2.905771;17990000;153;;;;;;;;;;;;;;
2.908271;17992500;125;;;;;;;;;;;;;;
2.910771;17995000;125;17995056;596.179;-228.878;509.932;47770.254;52803.668;35643.227;17994626;-984.46;-10.342;80.331;6707.466;908.715;-1113.448
2.913271;17997500;155;;;;;;;;;;;;;;
2.915771;18000000;170;;;;;;;;;;;;;;
2.918271;18002500;172;;;;;;;;;;;;;;
2.920771;18005000;153;;;;;;;;;;;;;;
2.923271;18007500;328;;;;;;;;;;;;;;
2.925771;18010000;222;;;;;;;;;;;;;;
2.928271;18012500;169;;;;;;;;;;;;;;
2.930771;18015000;154;;;;;;;;;;;;;;
2.933271;18017500;138;;;;;;;;;;;;;;
2.935771;18020000;151;18019361;573.629;-208.858;537.0;43453.68;47932.234;39218.691;18018929;-987.008;-5.506;76.491;3280.718;1092.092;-772.088
2.938271;18022500;154;;;;;;;;;;;;;;
2.940771;18025000;153;;;;;;;;;;;;;;
2.943271;18027500;139;;;;;;;;;;;;;;
2.945771;18030000;151;;;;;;;;;;;;;;
2.948271;18032500;143;;;;;;;;;;;;;;
2.950771;18035000;150;;;;;;;;;;;;;;
2.953271;18037500;137;;;;;;;;;;;;;;
2.955771;18040000;303;;;;;;;;;;;;;;
2.958271;18042500;234;;;;;;;;;;;;;;
2.960771;18045000;201;;;;;;;;;;;;;;
2.963271;18047500;167;;;;;;;;;;;;;;
2.965771;18050000;153;18049645;547.796;-212.421;564.946;35288.559;41981.371;46959.32;18049210;-1001.805;-0.808;76.431;-469.068;1389.237;-447.796
2.968271;18052500;124;;;;;;;;;;;;;;
2.970771;18055000;150;;;;;;;;;;;;;;
2.973271;18057500;156;;;;;;;;;;;;;;
2.975771;18060000;143;;;;;;;;;;;;;;
2.978271;18062500;153;;;;;;;;;;;;;;
2.980771;18065000;170;;;;;;;;;;;;;;
2.983271;18067500;143;;;;;;;;;;;;;;
2.985771;18070000;153;;;;;;;;;;;;;;
2.988271;18072500;262;;;;;;;;;;;;;;
2.990771;18075000;171;;;;;;;;;;;;;;
2.993271;18077500;152;;;;;;;;;;;;;;
2.995771;18080000;153;18080209;539.383;-204.429;590.799;30680.379;37558.738;54919.293;18079774;-1005.193;0.05;74.549;-2731.115;1367.463;-252.156
2.998271;18082500;174;;;;;;;;;;;;;;
3.000771;18085000;155;;;;;;;;;;;;;;
3.003271;18087500;166;;;;;;;;;;;;;;
3.005771;18090000;154;;;;;;;;;;;;;;
3.008271;18092500;142;;;;;;;;;;;;;;
3.010771;18095000;153;;;;;;;;;;;;;;
3.013271;18097500;155;;;;;;;;;;;;;;
3.015771;18100000;168;;;;;;;;;;;;;;
3.018271;18102500;315;;;;;;;;;;;;;;
3.020771;18105000;233;;;;;;;;;;;;;;
3.023271;18107500;185;;;;;;;;;;;;;;
3.025771;18110000;157;;;;;;;;;;;;;;
3.028271;18112500;152;18112321;523.034;-199.606;613.421;26808.797;33811.363;61055.016;18111886;-1005.076;1.944;71.34;-5252.372;1304.777;-37.861
3.030771;18115000;126;;;;;;;;;;;;;;
3.033271;18117500;139;;;;;;;;;;;;;;
3.035771;18120000;151;;;;;;;;;;;;;;
3.038271;18122500;154;;;;;;;;;;;;;;
3.040771;18125000;8;;;;;;;;;;;;;;
3.043271;18127500;282;;;;;;;;;;;;;;
3.045771;18130000;171;;;;;;;;;;;;;;
3.048271;18132500;139;;;;;;;;;;;;;;
3.050771;18135000;128;;;;;;;;;;;;;;
3.053271;18137500;157;;;;;;;;;;;;;;
3.055771;18140000;170;;;;;;;;;;;;;;
3.058271;18142500;155;;;;;;;;;;;;;;
3.060771;18145000;154;18144350;515.689;-199.916;630.781;23597.17;31233.545;63929.078;18143910;-1004.207;0.231;67.785;-7147.065;1133.226;187.157
3.063271;18147500;143;;;;;;;;;;;;;;
3.065771;18150000;157;;;;;;;;;;;;;;
3.068271;18152500;153;;;;;;;;;;;;;;
3.070771;18155000;124;;;;;;;;;;;;;;
3.073271;18157500;282;;;;;;;;;;;;;;
3.075771;18160000;200;;;;;;;;;;;;;;
3.078271;18162500;188;;;;;;;;;;;;;;
3.080771;18165000;173;;;;;;;;;;;;;;
3.083271;18167500;142;;;;;;;;;;;;;;
3.085771;18170000;135;;;;;;;;;;;;;;
3.088271;18172500;124;;;;;;;;;;;;;;
3.090771;18175000;152;;;;;;;;18175937;-1005.103;-0.086;61.907;-8705.524;1277.377;260.487
3.093271;18177500;139;18176364;502.251;-197.838;647.188;19070.873;29756.742;66561.0;;;;;;;
3.095771;18180000;152;;;;;;;;;;;;;;
3.098271;18182500;155;;;;;;;;;;;;;;
3.100771;18185000;154;;;;;;;;;;;;;;
3.103271;18187500;313;;;;;;;;;;;;;;
3.105771;18190000;189;;;;;;;;;;;;;;
3.108271;18192500;150;;;;;;;;;;;;;;
3.110771;18195000;137;;;;;;;;;;;;;;
3.113271;18197500;141;;;;;;;;;;;;;;
3.115771;18200000;168;;;;;;;;;;;;;;
3.118271;18202500;155;;;;;;;;;;;;;;
3.120771;18205000;170;;;;;;;;;;;;;;
3.123271;18207500;158;18208489;487.203;-206.185;654.332;16320.08;27995.029;68370.078;18208049;-1004.654;-1.497;60.257;-8565.998;1561.758;244.4
3.125771;18210000;155;;;;;;;;;;;;;;
3.128271;18212500;126;;;;;;;;;;;;;;
3.130771;18215000;136;;;;;;;;;;;;;;
3.133271;18217500;138;;;;;;;;;;;;;;
3.135771;18220000;317;;;;;;;;;;;;;;
3.138271;18222500;230;;;;;;;;;;;;;;
3.140771;18225000;169;;;;;;;;;;;;;;
3.143271;18227500;151;;;;;;;;;;;;;;
3.145771;18230000;156;;;;;;;;;;;;;;
3.148271;18232500;152;;;;;;;;;;;;;;
3.150771;18235000;153;;;;;;;;;;;;;;
3.153271;18237500;141;;;;;;;;18238611;-1002.264;0.31;56.866;-8439.136;1076.358;415.055
3.155771;18240000;142;18239041;480.332;-219.367;664.163;15858.451;26835.027;68922.766;;;;;;;
3.158271;18242500;155;;;;;;;;;;;;;;
3.160771;18245000;169;;;;;;;;;;;;;;
3.163271;18247500;167;;;;;;;;;;;;;;
3.165771;18250000;361;;;;;;;;;;;;;;
3.168271;18252500;250;;;;;;;;;;;;;;
3.170771;18255000;171;;;;;;;;;;;;;;
3.173271;18257500;170;;;;;;;;;;;;;;
3.175771;18260000;172;;;;;;;;;;;;;;
3.178271;18262500;157;;;;;;;;;;;;;;
3.180771;18265000;173;;;;;;;;;;;;;;
3.183271;18267500;142;;;;;;;;;;;;;;
3.185771;18270000;153;18271075;468.32;-223.49;674.899;14982.403;26921.713;67990.5;18270637;-1001.652;1.301;60.221;-9592.616;717.602;701.427
3.188271;18272500;152;;;;;;;;;;;;;;
3.190771;18275000;135;;;;;;;;;;;;;;
3.193271;18277500;140;;;;;;;;;;;;;;
3.195771;18280000;169;;;;;;;;;;;;;;
3.198271;18282500;208;;;;;;;;;;;;;;
3.200771;18285000;271;;;;;;;;;;;;;;
3.203271;18287500;182;;;;;;;;;;;;;;
3.205771;18290000;167;;;;;;;;;;;;;;
3.208271;18292500;136;;;;;;;;;;;;;;
3.210771;18295000;136;;;;;;;;;;;;;;
3.213271;18297500;140;;;;;;;;;;;;;;
3.215771;18300000;141;;;;;;;;;;;;;;
3.218271;18302500;172;18303006;453.56;-234.044;686.715;12887.971;25758.502;66839.719;18302576;-1000.687;0.742;63.212;-10428.548;600.347;778.793
3.220771;18305000;152;;;;;;;;;;;;;;
3.223271;18307500;167;;;;;;;;;;;;;;
3.225771;18310000;127;;;;;;;;;;;;;;
3.228271;18312500;125;;;;;;;;;;;;;;
3.230771;18315000;380;;;;;;;;;;;;;;
3.233271;18317500;222;;;;;;;;;;;;;;
3.235771;18320000;173;;;;;;;;;;;;;;
3.238271;18322500;159;;;;;;;;;;;;;;
3.240771;18325000;153;;;;;;;;;;;;;;
3.243271;18327500;166;;;;;;;;;;;;;;
3.245771;18330000;135;;;;;;;;;;;;;;
3.248271;18332500;125;;;;;;;;;;;;;;
3.250771;18335000;138;18335040;449.231;-239.995;701.466;11607.447;24581.701;64948.043;18334600;-998.165;0.333;64.224;-10650.433;626.767;796.729
3.253271;18337500;139;;;;;;;;;;;;;;
3.255771;18340000;150;;;;;;;;;;;;;;
3.258271;18342500;173;;;;;;;;;;;;;;
3.260771;18345000;319;;;;;;;;;;;;;;
3.263271;18347500;248;;;;;;;;;;;;;;
3.265771;18350000;171;;;;;;;;;;;;;;
3.268271;18352500;139;;;;;;;;;;;;;;
3.270771;18355000;153;;;;;;;;;;;;;;
3.273271;18357500;140;;;;;;;;;;;;;;
3.275771;18360000;144;;;;;;;;;;;;;;
3.278271;18362500;152;;;;;;;;;;;;;;
3.280771;18365000;170;;;;;;;;;;;;;;
3.283271;18367500;155;18366967;429.868;-248.827;712.57;10807.45;23161.865;62450.078;18366540;-995.184;-2.319;64.325;-11412.036;565.242;871.08
3.285771;18370000;126;;;;;;;;;;;;;;
3.288271;18372500;124;;;;;;;;;;;;;;
3.290771;18375000;152;;;;;;;;;;;;;;
3.293271;18377500;378;;;;;;;;;;;;;;
3.295771;18380000;238;;;;;;;;;;;;;;
3.298271;18382500;207;;;;;;;;;;;;;;
3.300771;18385000;167;;;;;;;;;;;;;;
3.303271;18387500;169;;;;;;;;;;;;;;
3.305771;18390000;137;;;;;;;;;;;;;;
3.308271;18392500;152;;;;;;;;;;;;;;
3.310771;18395000;153;;;;;;;;;;;;;;
3.313271;18397500;158;18397456;410.936;-259.205;721.203;9030.265;20904.771;59349.449;18397016;-1003.558;-2.972;66.574;-11909.81;1846.417;715.526
3.315771;18400000;168;;;;;;;;;;;;;;
3.318271;18402500;174;;;;;;;;;;;;;;
3.320771;18405000;171;;;;;;;;;;;;;;
3.323271;18407500;141;;;;;;;;;;;;;;
3.325771;18410000;318;;;;;;;;;;;;;;
3.328271;18412500;216;;;;;;;;;;;;;;
3.330771;18415000;175;;;;;;;;;;;;;;
3.333271;18417500;160;;;;;;;;;;;;;;
3.335771;18420000;144;;;;;;;;;;;;;;
3.338271;18422500;153;18421742;401.303;-271.822;730.24;7576.438;18911.908;56413.914;18421320;-1003.552;-4.409;67.93;-12032.257;1881.846;696.812
3.340771;18425000;171;;;;;;;;;;;;;;
3.343271;18427500;140;;;;;;;;;;;;;;
3.345771;18430000;150;;;;;;;;;;;;;;
3.348271;18432500;151;;;;;;;;;;;;;;
3.350771;18435000;127;;;;;;;;;;;;;;
3.353271;18437500;157;;;;;;;;;;;;;;
3.355771;18440000;152;;;;;;;;;;;;;;
3.358271;18442500;330;;;;;;;;;;;;;;
3.360771;18445000;215;;;;;;;;;;;;;;
3.363271;18447500;159;;;;;;;;;;;;;;
3.365771;18450000;157;;;;;;;;;;;;;;
3.368271;18452500;127;18452306;387.734;-280.862;736.501;7470.617;17955.812;52890.156;18451861;-1000.424;-4.005;68.737;-11894.831;1856.879;659.784
3.370771;18455000;153;;;;;;;;;;;;;;
3.373271;18457500;137;;;;;;;;;;;;;;
3.375771;18460000;151;;;;;;;;;;;;;;
3.378271;18462500;155;;;;;;;;;;;;;;
3.380771;18465000;155;;;;;;;;;;;;;;
3.383271;18467500;158;;;;;;;;;;;;;;
3.385771;18470000;135;;;;;;;;;;;;;;
3.388271;18472500;265;;;;;;;;;;;;;;
3.390771;18475000;256;;;;;;;;;;;;;;
3.393271;18477500;185;;;;;;;;;;;;;;
3.395771;18480000;185;;;;;;;;;;;;;;
3.398271;18482500;156;18482847;374.752;-292.836;739.479;7028.398;15510.146;48459.773;18482424;-1000.734;-4.665;69.204;-11679.402;1991.097;580.857
3.400771;18485000;170;;;;;;;;;;;;;;
3.403271;18487500;141;;;;;;;;;;;;;;
3.405771;18490000;135;;;;;;;;;;;;;;
3.408271;18492500;151;;;;;;;;;;;;;;
3.410771;18495000;152;;;;;;;;;;;;;;
3.413271;18497500;140;;;;;;;;;;;;;;
3.415771;18500000;142;;;;;;;;;;;;;;
3.418271;18502500;153;;;;;;;;;;;;;;
3.420771;18505000;327;;;;;;;;;;;;;;
3.423271;18507500;217;;;;;;;;;;;;;;
3.425771;18510000;144;;;;;;;;;;;;;;
3.428271;18512500;127;;;;;;;;;;;;;;
3.430771;18515000;128;18514981;366.043;-297.372;746.846;5847.041;11885.201;41696.348;18514536;-1000.083;-6.665;75.327;-11277.869;2099.792;536.502
3.433271;18517500;157;;;;;;;;;;;;;;
3.435771;18520000;151;;;;;;;;;;;;;;
3.438271;18522500;170;;;;;;;;;;;;;;
3.440771;18525000;152;;;;;;;;;;;;;;
3.443271;18527500;366;;;;;;;;;;;;;;
3.445771;18530000;264;;;;;;;;;;;;;;
3.448271;18532500;160;;;;;;;;;;;;;;
3.450771;18535000;158;;;;;;;;;;;;;;
3.453271;18537500;139;;;;;;;;;;;;;;
3.455771;18540000;151;;;;;;;;;;;;;;
3.458271;18542500;173;;;;;;;;;;;;;;
3.460771;18545000;152;;;;;;;;;;;;;;
3.463271;18547500;139;18547077;358.989;-296.448;752.051;3523.814;7568.691;34626.219;18546647;-999.849;-12.23;73.86;-10548.163;1270.303;657.989
3.465771;18550000;153;;;;;;;;;;;;;;
3.468271;18552500;143;;;;;;;;;;;;;;
3.470771;18555000;137;;;;;;;;;;;;;;
3.473271;18557500;158;;;;;;;;;;;;;;
3.475771;18560000;297;;;;;;;;;;;;;;
3.478271;18562500;231;;;;;;;;;;;;;;
3.480771;18565000;188;;;;;;;;;;;;;;
3.483271;18567500;144;;;;;;;;;;;;;;
3.485771;18570000;137;;;;;;;;;;;;;;
3.488271;18572500;143;;;;;;;;;;;;;;
3.490771;18575000;152;;;;;;;;;;;;;;
3.493271;18577500;157;;;;;;;;18578500;-994.142;-13.723;71.753;-9950.317;64.913;852.59
3.495771;18580000;153;18578938;366.849;-296.235;766.494;1321.998;2245.194;26793.531;;;;;;;
3.498271;18582500;175;;;;;;;;;;;;;;
3.500771;18585000;154;;;;;;;;;;;;;;
3.503271;18587500;141;;;;;;;;;;;;;;
3.505771;18590000;330;;;;;;;;;;;;;;
3.508271;18592500;190;;;;;;;;;;;;;;
3.510771;18595000;171;;;;;;;;;;;;;;
3.513271;18597500;168;;;;;;;;;;;;;;
3.515771;18600000;152;;;;;;;;;;;;;;
3.518271;18602500;171;;;;;;;;;;;;;;
3.520771;18605000;154;;;;;;;;;;;;;;
3.523271;18607500;159;;;;;;;;;;;;;;
3.525771;18610000;153;18610695;372.467;-311.716;768.234;2404.773;3571.435;20965.979;18610265;-993.876;-10.664;70.868;-9432.677;101.042;779.773
3.528271;18612500;144;;;;;;;;;;;;;;
3.530771;18615000;144;;;;;;;;;;;;;;
3.533271;18617500;156;;;;;;;;;;;;;;
3.535771;18620000;144;;;;;;;;;;;;;;
3.538271;18622500;311;;;;;;;;;;;;;;
3.540771;18625000;223;;;;;;;;;;;;;;
3.543271;18627500;184;;;;;;;;;;;;;;
3.545771;18630000;155;;;;;;;;;;;;;;
3.548271;18632500;144;;;;;;;;;;;;;;
3.550771;18635000;126;;;;;;;;;;;;;;
3.553271;18637500;139;;;;;;;;;;;;;;
3.555771;18640000;152;18641012;375.084;-317.846;773.907;5637.097;4433.238;12344.992;18640567;-991.835;-11.65;71.082;-8868.73;-140.698;749.097
3.558271;18642500;154;;;;;;;;;;;;;;
3.560771;18645000;144;;;;;;;;;;;;;;
3.563271;18647500;139;;;;;;;;;;;;;;
3.565771;18650000;152;;;;;;;;;;;;;;
3.568271;18652500;0;;;;;;;;;;;;;;
3.570771;18655000;266;;;;;;;;;;;;;;
3.573271;18657500;188;;;;;;;;;;;;;;
3.575771;18660000;167;;;;;;;;;;;;;;
3.578271;18662500;175;;;;;;;;;;;;;;
3.580771;18665000;153;;;;;;;;;;;;;;
3.583271;18667500;139;;;;;;;;;;;;;;
3.585771;18670000;153;;;;;;;;;;;;;;
3.588271;18672500;128;18672929;378.095;-310.744;782.541;8759.867;4032.638;3018.867;18672507;-991.312;-12.421;75.135;-7991.731;-96.038;648.642
3.590771;18675000;135;;;;;;;;;;;;;;
3.593271;18677500;139;;;;;;;;;;;;;;
3.595771;18680000;151;;;;;;;;;;;;;;
3.598271;18682500;173;;;;;;;;;;;;;;
3.600771;18685000;381;;;;;;;;;;;;;;
3.603271;18687500;247;;;;;;;;;;;;;;
3.605771;18690000;168;;;;;;;;;;;;;;
3.608271;18692500;140;;;;;;;;;;;;;;
3.610771;18695000;154;;;;;;;;;;;;;;
3.613271;18697500;138;;;;;;;;;;;;;;
3.615771;18700000;169;;;;;;;;;;;;;;
3.618271;18702500;155;;;;;;;;;;;;;;
3.620771;18705000;153;18704717;382.504;-305.931;787.834;8314.874;3816.569;-5787.139;18704272;-990.003;-11.02;76.069;-7050.958;-57.111;572.022
3.623271;18707500;167;;;;;;;;;;;;;;
3.625771;18710000;135;;;;;;;;;;;;;;
3.628271;18712500;128;;;;;;;;;;;;;;
3.630771;18715000;126;;;;;;;;;;;;;;
3.633271;18717500;345;;;;;;;;;;;;;;
3.635771;18720000;249;;;;;;;;;;;;;;
3.638271;18722500;174;;;;;;;;;;;;;;
3.640771;18725000;158;;;;;;;;;;;;;;
3.643271;18727500;139;;;;;;;;;;;;;;
3.645771;18730000;152;;;;;;;;;;;;;;
3.648271;18732500;125;;;;;;;;;;;;;;
3.650771;18735000;144;;;;;;;;18736122;-989.943;-10.182;76.426;-6248.222;-69.13;525.484
3.653271;18737500;138;18736552;385.998;-298.436;795.315;6367.88;2356.99;-15390.969;;;;;;;
3.655771;18740000;138;;;;;;;;;;;;;;
3.658271;18742500;171;;;;;;;;;;;;;;
3.660771;18745000;170;;;;;;;;;;;;;;
3.663271;18747500;381;;;;;;;;;;;;;;
3.665771;18750000;208;;;;;;;;;;;;;;
3.668271;18752500;171;;;;;;;;;;;;;;
3.670771;18755000;154;;;;;;;;;;;;;;
3.673271;18757500;158;;;;;;;;;;;;;;
3.675771;18760000;169;;;;;;;;;;;;;;
3.678271;18762500;171;;;;;;;;;;;;;;
3.680771;18765000;152;;;;;;;;;;;;;;
3.683271;18767500;159;18768413;388.231;-284.649;799.628;3137.924;322.453;-23028.857;18767975;-990.027;-9.002;76.978;-5423.061;6.076;460.272
3.685771;18770000;127;;;;;;;;;;;;;;
3.688271;18772500;126;;;;;;;;;;;;;;
3.690771;18775000;127;;;;;;;;;;;;;;
3.693271;18777500;166;;;;;;;;;;;;;;
3.695771;18780000;351;;;;;;;;;;;;;;
3.698271;18782500;221;;;;;;;;;;;;;;
3.700771;18785000;174;;;;;;;;;;;;;;
3.703271;18787500;152;;;;;;;;;;;;;;
3.705771;18790000;137;;;;;;;;;;;;;;
3.708271;18792500;152;;;;;;;;;;;;;;
3.710771;18795000;128;;;;;;;;;;;;;;
3.713271;18797500;155;18798448;394.561;-273.137;801.322;905.528;-549.419;-28659.977;18798018;-988.673;-9.943;75.349;-4387.595;164.585;359.821
3.715771;18800000;151;;;;;;;;;;;;;;
3.718271;18802500;173;;;;;;;;;;;;;;
3.720771;18805000;172;;;;;;;;;;;;;;
3.723271;18807500;140;;;;;;;;;;;;;;
3.725771;18810000;155;;;;;;;;;;;;;;
3.728271;18812500;269;;;;;;;;;;;;;;
3.730771;18815000;183;;;;;;;;;;;;;;
3.733271;18817500;156;;;;;;;;;;;;;;
3.735771;18820000;154;;;;;;;;;;;;;;
3.738271;18822500;175;18822413;401.826;-258.693;800.979;-211.624;-26.698;-34424.727;18821974;-989.07;-9.116;74.272;-3101.153;157.668;253.017
3.740771;18825000;173;;;;;;;;;;;;;;
3.743271;18827500;141;;;;;;;;;;;;;;
3.745771;18830000;127;;;;;;;;;;;;;;
3.748271;18832500;127;;;;;;;;;;;;;;
3.750771;18835000;155;;;;;;;;;;;;;;
3.753271;18837500;159;;;;;;;;;;;;;;
3.755771;18840000;151;;;;;;;;;;;;;;
3.758271;18842500;26;;;;;;;;;;;;;;
3.760771;18845000;265;;;;;;;;;;;;;;
3.763271;18847500;201;;;;;;;;;;;;;;
3.765771;18850000;168;;;;;;;;;;;;;;
3.768271;18852500;135;18852603;412.655;-252.987;804.313;-2669.417;2128.886;-40106.43;18852168;-989.417;-8.831;74.042;-1715.408;175.16;127.929
3.770771;18855000;128;;;;;;;;;;;;;;
3.773271;18857500;139;;;;;;;;;;;;;;
3.775771;18860000;169;;;;;;;;;;;;;;
3.778271;18862500;171;;;;;;;;;;;;;;
3.780771;18865000;152;;;;;;;;;;;;;;
3.783271;18867500;140;;;;;;;;;;;;;;
3.785771;18870000;135;;;;;;;;;;;;;;
3.788271;18872500;136;;;;;;;;;;;;;;
3.790771;18875000;350;;;;;;;;;;;;;;
3.793271;18877500;223;;;;;;;;;;;;;;
3.795771;18880000;183;;;;;;;;;;;;;;
3.798271;18882500;168;18882990;416.545;-260.358;807.535;-5242.321;2591.192;-47926.484;18882558;-989.167;-9.622;75.146;-673.7;117.839;23.97
3.800771;18885000;156;;;;;;;;;;;;;;
3.803271;18887500;142;;;;;;;;;;;;;;
3.805771;18890000;154;;;;;;;;;;;;;;
3.808271;18892500;126;;;;;;;;;;;;;;
3.810771;18895000;136;;;;;;;;;;;;;;
3.813271;18897500;140;;;;;;;;;;;;;;
3.815771;18900000;171;;;;;;;;;;;;;;
3.818271;18902500;171;;;;;;;;;;;;;;
3.820771;18905000;365;;;;;;;;;;;;;;
3.823271;18907500;248;;;;;;;;;;;;;;
3.825771;18910000;159;;;;;;;;;;;;;;
3.828271;18912500;155;;;;;;;;;;;;;;
3.830771;18915000;151;18914758;404.507;-238.52;809.487;-4198.393;1747.195;-56615.098;18914323;-987.423;-10.995;79.545;516.735;319.76;-159.666
3.833271;18917500;156;;;;;;;;;;;;;;
3.835771;18920000;168;;;;;;;;;;;;;;
3.838271;18922500;153;;;;;;;;;;;;;;
3.840771;18925000;170;;;;;;;;;;;;;;
3.843271;18927500;138;;;;;;;;;;;;;;
3.845771;18930000;283;;;;;;;;;;;;;;
3.848271;18932500;200;;;;;;;;;;;;;;
3.850771;18935000;143;;;;;;;;;;;;;;
3.853271;18937500;143;;;;;;;;;;;;;;
3.855771;18940000;171;;;;;;;;;;;;;;
3.858271;18942500;154;;;;;;;;;;;;;;
3.860771;18945000;171;;;;;;;;;;;;;;
3.863271;18947500;141;18946700;410.012;-212.673;809.48;-3273.598;-327.727;-65690.031;18946260;-984.747;-11.25;81.655;2938.273;-458.353;-94.37
3.865771;18950000;141;;;;;;;;;;;;;;
3.868271;18952500;125;;;;;;;;;;;;;;
3.870771;18955000;151;;;;;;;;;;;;;;
3.873271;18957500;156;;;;;;;;;;;;;;
3.875771;18960000;313;;;;;;;;;;;;;;
3.878271;18962500;235;;;;;;;;;;;;;;
3.880771;18965000;172;;;;;;;;;;;;;;
3.883271;18967500;170;;;;;;;;;;;;;;
3.885771;18970000;154;;;;;;;;;;;;;;
3.888271;18972500;126;;;;;;;;;;;;;;
3.890771;18975000;134;;;;;;;;;;;;;;
3.893271;18977500;157;18978627;414.21;-187.131;809.607;-5627.293;-2266.966;-72099.219;18978200;-985.109;-9.346;78.408;4759.672;-493.185;-290.027
3.895771;18980000;150;;;;;;;;;;;;;;
3.898271;18982500;153;;;;;;;;;;;;;;
3.900771;18985000;153;;;;;;;;;;;;;;
3.903271;18987500;158;;;;;;;;;;;;;;
3.905771;18990000;343;;;;;;;;;;;;;;
3.908271;18992500;191;;;;;;;;;;;;;;
3.910771;18995000;154;;;;;;;;;;;;;;
3.913271;18997500;142;;;;;;;;;;;;;;
3.915771;19000000;170;;;;;;;;;;;;;;
3.918271;19002500;155;;;;;;;;;;;;;;
3.920771;19005000;151;;;;;;;;;;;;;;
3.923271;19007500;139;;;;;;;;;;;;;;
3.925771;19010000;134;19010752;420.248;-171.754;816.085;-6591.491;-4541.055;-79754.633;19010312;-989.448;-5.194;76.891;5397.563;-136.901;-562.088
3.928271;19012500;125;;;;;;;;;;;;;;
3.930771;19015000;127;;;;;;;;;;;;;;
3.933271;19017500;140;;;;;;;;;;;;;;
3.935771;19020000;150;;;;;;;;;;;;;;
3.938271;19022500;296;;;;;;;;;;;;;;
3.940771;19025000;204;;;;;;;;;;;;;;
3.943271;19027500;156;;;;;;;;;;;;;;
3.945771;19030000;134;;;;;;;;;;;;;;
3.948271;19032500;125;;;;;;;;;;;;;;
3.950771;19035000;126;;;;;;;;;;;;;;
3.953271;19037500;155;;;;;;;;;;;;;;
3.955771;19040000;143;;;;;;;;19040874;-990.99;-6.069;78.634;5164.872;14.319;-625.421
3.958271;19042500;151;19041310;427.296;-154.657;816.291;-5819.604;-7329.689;-86201.273;;;;;;;
3.960771;19045000;153;;;;;;;;;;;;;;
3.963271;19047500;140;;;;;;;;;;;;;;
3.965771;19050000;152;;;;;;;;;;;;;;
3.968271;19052500;30;;;;;;;;;;;;;;
3.970771;19055000;265;;;;;;;;;;;;;;
3.973271;19057500;181;;;;;;;;;;;;;;
3.975771;19060000;158;;;;;;;;;;;;;;
3.978271;19062500;174;;;;;;;;;;;;;;
3.980771;19065000;152;;;;;;;;;;;;;;
3.983271;19067500;139;;;;;;;;;;;;;;
3.985771;19070000;135;;;;;;;;;;;;;;
3.988271;19072500;141;19073246;429.892;-121.816;813.998;-5019.373;-11597.205;-91722.711;19072814;-987.88;-8.816;79.461;4931.128;-585.772;-505.775
3.990771;19075000;152;;;;;;;;;;;;;;
3.993271;19077500;139;;;;;;;;;;;;;;
3.995771;19080000;142;;;;;;;;;;;;;;
3.998271;19082500;171;;;;;;;;;;;;;;
4.000771;19085000;397;;;;;;;;;;;;;;
4.003271;19087500;252;;;;;;;;;;;;;;
4.005771;19090000;158;;;;;;;;;;;;;;
4.008271;19092500;138;;;;;;;;;;;;;;
4.010771;19095000;136;;;;;;;;;;;;;;
4.013271;19097500;157;;;;;;;;;;;;;;
4.015771;19100000;143;;;;;;;;;;;;;;
4.018271;19102500;174;;;;;;;;;;;;;;
4.020771;19105000;172;19105448;430.363;-90.825;814.076;-6198.592;-16384.594;-97138.703;19105013;-987.17;-10.223;80.77;4622.009;-510.546;-477.424
4.023271;19107500;159;;;;;;;;;;;;;;
4.025771;19110000;153;;;;;;;;;;;;;;
4.028271;19112500;124;;;;;;;;;;;;;;
4.030771;19115000;136;;;;;;;;;;;;;;
4.033271;19117500;366;;;;;;;;;;;;;;
4.035771;19120000;251;;;;;;;;;;;;;;
4.038271;19122500;201;;;;;;;;;;;;;;
4.040771;19125000;157;;;;;;;;;;;;;;
4.043271;19127500;159;;;;;;;;;;;;;;
4.045771;19130000;144;;;;;;;;;;;;;;
4.048271;19132500;124;;;;;;;;;;;;;;
4.050771;19135000;143;;;;;;;;;;;;;;
4.053271;19137500;142;;;;;;;;;;;;;;
4.055771;19140000;169;;;;;;;;;;;;;;
4.058271;19142500;155;;;;;;;;;;;;;;
4.060771;19145000;171;;;;;;;;;;;;;;
4.063271;19147500;412;19147030;435.661;-58.383;806.465;-5102.037;-20113.613;-101409.766;19146590;-988.746;-9.425;78.745;4610.971;-313.519;-507.365
4.065771;19150000;251;;;;;;;;;;;;;;
4.068271;19152500;182;;;;;;;;;;;;;;
4.070771;19155000;139;;;;;;;;;;;;;;
4.073271;19157500;157;;;;;;;;;;;;;;
4.075771;19160000;153;;;;;;;;;;;;;;
4.078271;19162500;154;;;;;;;;;;;;;;
4.080771;19165000;171;;;;;;;;;;;;;;
4.083271;19167500;158;;;;;;;;;;;;;;
4.085771;19170000;152;;;;;;;;;;;;;;
4.088271;19172500;124;;;;;;;;;;;;;;
4.090771;19175000;128;;;;;;;;;;;;;;
4.093271;19177500;159;;;;;;;;;;;;;;
4.095771;19180000;359;19179218;437.003;-29.453;800.973;-1171.935;-21225.869;-103425.898;19178790;-987.908;-8.704;75.881;3857.172;-275.53;-470.622
4.098271;19182500;236;;;;;;;;;;;;;;
4.100771;19185000;176;;;;;;;;;;;;;;
4.103271;19187500;152;;;;;;;;;;;;;;
4.105771;19190000;153;;;;;;;;;;;;;;
4.108271;19192500;150;;;;;;;;;;;;;;
4.110771;19195000;152;;;;;;;;;;;;;;
4.113271;19197500;139;;;;;;;;;;;;;;
4.115771;19200000;142;;;;;;;;;;;;;;
4.118271;19202500;171;;;;;;;;;;;;;;
4.120771;19205000;169;;;;;;;;;;;;;;
4.123271;19207500;140;;;;;;;;;;;;;;
4.125771;19210000;136;;;;;;;;19210989;-987.416;-9.812;75.735;3827.064;-277.504;-443.153
4.128271;19212500;319;19211429;439.919;7.711;805.039;-733.588;-23912.639;-103876.477;;;;;;;
4.130771;19215000;217;;;;;;;;;;;;;;
4.133271;19217500;176;;;;;;;;;;;;;;
4.135771;19220000;155;;;;;;;;;;;;;;
4.138271;19222500;156;;;;;;;;;;;;;;
4.140771;19225000;154;;;;;;;;;;;;;;
4.143271;19227500;139;;;;;;;;;;;;;;
4.145771;19230000;137;;;;;;;;;;;;;;
4.148271;19232500;127;;;;;;;;;;;;;;
4.150771;19235000;127;;;;;;;;;;;;;;
4.153271;19237500;141;;;;;;;;;;;;;;
4.155771;19240000;154;;;;;;;;;;;;;;
4.158271;19242500;152;19243357;450.46;28.791;798.478;-5276.221;-28274.568;-107063.836;19242927;-988.364;-6.637;73.503;3856.648;-220.316;-383.808
4.160771;19245000;170;;;;;;;;;;;;;;
4.163271;19247500;139;;;;;;;;;;;;;;
4.165771;19250000;153;;;;;;;;;;;;;;
4.168271;19252500;301;;;;;;;;;;;;;;
4.170771;19255000;283;;;;;;;;;;;;;;
4.173271;19257500;204;;;;;;;;;;;;;;
4.175771;19260000;186;;;;;;;;;;;;;;
4.178271;19262500;184;;;;;;;;;;;;;;
4.180771;19265000;155;;;;;;;;;;;;;;
4.183271;19267500;142;;;;;;;;;;;;;;
4.185771;19270000;127;;;;;;;;;;;;;;
4.188271;19272500;151;;;;;;;;19273491;-990.21;-7.361;71.89;3977.94;-141.925;-368.118
4.190771;19275000;154;19273928;458.156;58.437;787.443;-5278.41;-30048.902;-108718.953;;;;;;;
4.193271;19277500;138;;;;;;;;;;;;;;
4.195771;19280000;151;;;;;;;;;;;;;;
4.198271;19282500;153;;;;;;;;;;;;;;
4.200771;19285000;375;;;;;;;;;;;;;;
4.203271;19287500;269;;;;;;;;;;;;;;
4.205771;19290000;168;;;;;;;;;;;;;;
4.208271;19292500;138;;;;;;;;;;;;;;
4.210771;19295000;135;;;;;;;;19296224;-989.61;-7.255;72.218;4307.543;-399.516;-198.337
4.213271;19297500;138;19296654;459.252;81.416;773.966;-3632.427;-31489.082;-108113.008;;;;;;;
4.215771;19300000;167;;;;;;;;;;;;;;
4.218271;19302500;152;;;;;;;;;;;;;;
4.220771;19305000;169;;;;;;;;;;;;;;
4.223271;19307500;137;;;;;;;;;;;;;;
4.225771;19310000;126;;;;;;;;;;;;;;
4.228271;19312500;143;;;;;;;;;;;;;;
4.230771;19315000;126;;;;;;;;;;;;;;
4.233271;19317500;271;;;;;;;;;;;;;;
4.235771;19320000;254;;;;;;;;;;;;;;
4.238271;19322500;188;19322529;457.804;104.057;766.603;-931.681;-33115.812;-105937.859;19322097;-989.088;-7.771;71.108;4546.729;-398.791;-215.107
4.240771;19325000;185;;;;;;;;;;;;;;
4.243271;19327500;143;;;;;;;;;;;;;;
4.245771;19330000;154;;;;;;;;;;;;;;
4.248271;19332500;126;;;;;;;;;;;;;;
4.250771;19335000;152;;;;;;;;;;;;;;
4.253271;19337500;138;;;;;;;;;;;;;;
4.255771;19340000;142;;;;;;;;;;;;;;
4.258271;19342500;152;;;;;;;;;;;;;;
4.260771;19345000;150;;;;;;;;;;;;;;
4.263271;19347500;156;;;;;;;;;;;;;;
4.265771;19350000;351;;;;;;;;;;;;;;
4.268271;19352500;207;;;;;;;;;;;;;;
4.270771;19355000;152;;;;;;;;;;;;;;
4.273271;19357500;143;;;;;;;;;;;;;;
4.275771;19360000;153;19359248;461.382;134.936;759.889;29.716;-34645.461;-102932.594;19358812;-989.318;-7.828;71.975;5175.58;-497.414;-251.164
4.278271;19362500;155;;;;;;;;;;;;;;
4.280771;19365000;153;;;;;;;;;;;;;;
4.283271;19367500;157;;;;;;;;;;;;;;
4.285771;19370000;127;;;;;;;;;;;;;;
4.288271;19372500;126;;;;;;;;;;;;;;
4.290771;19375000;136;;;;;;;;;;;;;;
4.293271;19377500;142;;;;;;;;;;;;;;
4.295771;19380000;333;;;;;;;;;;;;;;
4.298271;19382500;279;;;;;;;;;;;;;;
4.300771;19385000;188;;;;;;;;;;;;;;
4.303271;19387500;153;;;;;;;;;;;;;;
4.305771;19390000;136;19391183;458.363;163.563;750.382;3358.48;-34578.75;-101486.336;19390751;-988.17;-6.783;70.871;5380.113;-440.605;-361.106
4.308271;19392500;152;;;;;;;;;;;;;;
4.310771;19395000;135;;;;;;;;;;;;;;
4.313271;19397500;158;;;;;;;;;;;;;;
4.315771;19400000;142;;;;;;;;;;;;;;
4.318271;19402500;26;;;;;;;;;;;;;;
4.320771;19405000;282;;;;;;;;;;;;;;
4.323271;19407500;173;;;;;;;;;;;;;;
4.325771;19410000;140;;;;;;;;;;;;;;
4.328271;19412500;126;;;;;;;;;;;;;;
4.330771;19415000;128;;;;;;;;;;;;;;
4.333271;19417500;139;;;;;;;;;;;;;;
4.335771;19420000;169;19420174;449.744;205.752;740.575;2655.056;-34909.125;-100388.891;19419744;-988.898;-6.554;70.341;5681.607;-377.45;-418.301
4.338271;19422500;173;;;;;;;;;;;;;;
4.340771;19425000;170;;;;;;;;;;;;;;
4.343271;19427500;157;;;;;;;;;;;;;;
4.345771;19430000;285;;;;;;;;;;;;;;
4.348271;19432500;202;;;;;;;;;;;;;;
4.350771;19435000;151;;;;;;;;;;;;;;
4.353271;19437500;169;;;;;;;;;;;;;;
4.355771;19440000;169;;;;;;;;;;;;;;
4.358271;19442500;154;;;;;;;;;;;;;;
4.360771;19445000;152;;;;;;;;;;;;;;
4.363271;19447500;158;;;;;;;;;;;;;;
4.365771;19450000;153;;;;;;;;;;;;;;
4.368271;19452500;151;;;;;;;;;;;;;;
4.370771;19455000;127;19455413;450.278;227.502;731.222;657.24;-34261.355;-100412.07;19454975;-982.976;-9.264;70.533;6537.652;-86.89;-531.698
4.373271;19457500;158;;;;;;;;;;;;;;
4.375771;19460000;143;;;;;;;;;;;;;;
4.378271;19462500;153;;;;;;;;;;;;;;
4.380771;19465000;382;;;;;;;;;;;;;;
4.383271;19467500;253;;;;;;;;;;;;;;
4.385771;19470000;188;;;;;;;;;;;;;;
4.388271;19472500;139;;;;;;;;;;;;;;
4.390771;19475000;136;;;;;;;;;;;;;;
4.393271;19477500;158;;;;;;;;;;;;;;
4.395771;19480000;153;;;;;;;;;;;;;;
4.398271;19482500;152;;;;;;;;;;;;;;
4.400771;19485000;144;;;;;;;;;;;;;;
4.403271;19487500;157;19487344;447.796;253.514;718.707;205.691;-32225.85;-98766.781;19486914;-989.453;-7.947;69.159;7307.582;643.267;-804.363
4.405771;19490000;152;;;;;;;;;;;;;;
4.408271;19492500;125;;;;;;;;;;;;;;
4.410771;19495000;127;;;;;;;;;;;;;;
4.413271;19497500;380;;;;;;;;;;;;;;
4.415771;19500000;266;;;;;;;;;;;;;;
4.418271;19502500;204;;;;;;;;;;;;;;
4.420771;19505000;159;;;;;;;;;;;;;;
4.423271;19507500;142;;;;;;;;;;;;;;
4.425771;19510000;151;;;;;;;;;;;;;;
4.428271;19512500;142;;;;;;;;;;;;;;
4.430771;19515000;127;;;;;;;;;;;;;;
4.433271;19517500;139;19517649;448.007;283.77;705.201;-1389.656;-30694.182;-93376.938;19517217;-990.098;-5.799;69.032;7296.14;622.479;-861.27
4.435771;19520000;170;;;;;;;;;;;;;;
4.438271;19522500;170;;;;;;;;;;;;;;
4.440771;19525000;152;;;;;;;;;;;;;;
4.443271;19527500;302;;;;;;;;;;;;;;
4.445771;19530000;187;;;;;;;;;;;;;;
4.448271;19532500;168;;;;;;;;;;;;;;
4.450771;19535000;155;;;;;;;;;;;;;;
4.453271;19537500;158;;;;;;;;;;;;;;
4.455771;19540000;152;;;;;;;;;;;;;;
4.458271;19542500;153;;;;;;;;;;;;;;
4.460771;19545000;169;;;;;;;;;;;;;;
4.463271;19547500;139;;;;;;;;;;;;;;
4.465771;19550000;128;19549682;445.529;309.896;697.55;-2794.111;-29214.598;-85826.273;19549242;-989.479;-6.503;74.236;7320.708;235.667;-776.207
4.468271;19552500;135;;;;;;;;;;;;;;
4.470771;19555000;135;;;;;;;;;;;;;;
4.473271;19557500;158;;;;;;;;;;;;;;
4.475771;19560000;152;;;;;;;;;;;;;;
4.478271;19562500;333;;;;;;;;;;;;;;
4.480771;19565000;218;;;;;;;;;;;;;;
4.483271;19567500;159;;;;;;;;;;;;;;
4.485771;19570000;155;;;;;;;;;;;;;;
4.488271;19572500;135;;;;;;;;;;;;;;
4.490771;19575000;136;;;;;;;;;;;;;;
4.493271;19577500;141;;;;;;;;;;;;;;
4.495771;19580000;153;;;;;;;;;;;;;;
4.498271;19582500;173;19581700;442.456;335.521;692.239;-5216.843;-27532.93;-77735.711;19581267;-988.646;-5.898;74.557;7059.234;214.696;-740.021
4.500771;19585000;170;;;;;;;;;;;;;;
4.503271;19587500;139;;;;;;;;;;;;;;
4.505771;19590000;127;;;;;;;;;;;;;;
4.508271;19592500;151;;;;;;;;;;;;;;
4.510771;19595000;282;;;;;;;;;;;;;;
4.513271;19597500;191;;;;;;;;;;;;;;
4.515771;19600000;168;;;;;;;;;;;;;;
4.518271;19602500;156;;;;;;;;;;;;;;
4.520771;19605000;171;;;;;;;;;;;;;;
4.523271;19607500;138;;;;;;;;;;;;;;
4.525771;19610000;144;;;;;;;;;;;;;;
4.528271;19612500;142;19613636;447.984;360.744;694.916;-8867.688;-24773.346;-67305.234;19613206;-989.655;-5.456;73.745;6690.96;139.649;-671.958
4.530771;19615000;126;;;;;;;;;;;;;;
4.533271;19617500;157;;;;;;;;;;;;;;
4.535771;19620000;152;;;;;;;;;;;;;;
4.538271;19622500;171;;;;;;;;;;;;;;
4.540771;19625000;332;;;;;;;;;;;;;;
4.543271;19627500;220;;;;;;;;;;;;;;
4.545771;19630000;170;;;;;;;;;;;;;;
4.548271;19632500;128;;;;;;;;;;;;;;
4.550771;19635000;153;;;;;;;;;;;;;;
4.553271;19637500;139;;;;;;;;;;;;;;
4.555771;19640000;151;;;;;;;;;;;;;;
4.558271;19642500;169;;;;;;;;;;;;;;
4.560771;19645000;143;19645675;442.824;367.814;690.494;-12733.24;-23735.49;-52533.473;19645230;-990.155;-5.812;73.01;6359.475;-248.834;-473.422
4.563271;19647500;139;;;;;;;;;;;;;;
4.565771;19650000;143;;;;;;;;;;;;;;
4.568271;19652500;143;;;;;;;;;;;;;;
4.570771;19655000;154;;;;;;;;;;;;;;
4.573271;19657500;283;;;;;;;;;;;;;;
4.575771;19660000;201;;;;;;;;;;;;;;
4.578271;19662500;189;;;;;;;;;;;;;;
4.580771;19665000;175;;;;;;;;;;;;;;
4.583271;19667500;157;;;;;;;;;;;;;;
4.585771;19670000;126;;;;;;;;;;;;;;
4.588271;19672500;144;;;;;;;;;;;;;;
4.590771;19675000;152;;;;;;;;19675881;-994.029;-9.199;67.151;7964.751;-728.142;-353.064
4.593271;19677500;157;19676304;447.266;374.153;690.288;-16021.828;-24180.152;-38145.047;;;;;;;
4.595771;19680000;151;;;;;;;;;;;;;;
4.598271;19682500;152;;;;;;;;;;;;;;
4.600771;19685000;169;;;;;;;;;;;;;;
4.603271;19687500;40;;;;;;;;;;;;;;
4.605771;19690000;247;;;;;;;;;;;;;;
4.608271;19692500;169;;;;;;;;;;;;;;
4.610771;19695000;141;;;;;;;;;;;;;;
4.613271;19697500;168;;;;;;;;;;;;;;
4.615771;19700000;154;;;;;;;;;;;;;;
4.618271;19702500;173;;;;;;;;;;;;;;
4.620771;19705000;152;;;;;;;;;;;;;;
4.623271;19707500;140;19708520;461.216;388.263;683.772;-17663.736;-21476.207;-23291.73;19708080;-980.329;-9.593;59.231;5415.326;-1502.86;-3.785
4.625771;19710000;136;;;;;;;;;;;;;;
4.628271;19712500;151;;;;;;;;;;;;;;
4.630771;19715000;136;;;;;;;;;;;;;;
4.633271;19717500;141;;;;;;;;;;;;;;
4.635771;19720000;379;;;;;;;;;;;;;;
4.638271;19722500;248;;;;;;;;;;;;;;
4.640771;19725000;204;;;;;;;;;;;;;;
4.643271;19727500;172;;;;;;;;;;;;;;
4.645771;19730000;137;;;;;;;;;;;;;;
4.648271;19732500;136;;;;;;;;;;;;;;
4.650771;19735000;155;;;;;;;;;;;;;;
4.653271;19737500;159;;;;;;;;;;;;;;
4.655771;19740000;153;19740626;474.444;384.21;680.956;-19181.986;-19435.521;-7792.895;19740191;-981.357;-7.76;67.353;2821.872;-1743.592;193.279
4.658271;19742500;155;;;;;;;;;;;;;;
4.660771;19745000;151;;;;;;;;;;;;;;
4.663271;19747500;158;;;;;;;;;;;;;;
4.665771;19750000;128;;;;;;;;;;;;;;
4.668271;19752500;335;;;;;;;;;;;;;;
4.670771;19755000;205;;;;;;;;;;;;;;
4.673271;19757500;169;;;;;;;;;;;;;;
4.675771;19760000;183;;;;;;;;;;;;;;
4.678271;19762500;174;;;;;;;;;;;;;;
4.680771;19765000;152;;;;;;;;;;;;;;
4.683271;19767500;138;;;;;;;;;;;;;;
4.685771;19770000;151;;;;;;;;;;;;;;
4.688271;19772500;126;19772737;475.0;367.805;680.879;-18210.199;-18382.809;6931.0;19772304;-980.229;-8.409;74.916;2274.341;-1770.6;216.427
4.690771;19775000;152;;;;;;;;;;;;;;
4.693271;19777500;140;;;;;;;;;;;;;;
4.695771;19780000;170;;;;;;;;;;;;;;
4.698271;19782500;411;;;;;;;;;;;;;;
4.700771;19785000;268;;;;;;;;;;;;;;
4.703271;19787500;198;;;;;;;;;;;;;;
4.705771;19790000;142;;;;;;;;;;;;;;
4.708271;19792500;153;;;;;;;;;;;;;;
4.710771;19795000;155;;;;;;;;;;;;;;
4.713271;19797500;142;;;;;;;;;;;;;;
4.715771;19800000;172;;;;;;;;;;;;;;
4.718271;19802500;156;;;;;;;;;;;;;;
4.720771;19805000;172;19804760;475.308;349.738;685.448;-18058.314;-16697.605;20918.699;19804330;-981.226;-8.019;74.19;2566.624;-1292.695;91.418
4.723271;19807500;167;;;;;;;;;;;;;;
4.725771;19810000;136;;;;;;;;;;;;;;
4.728271;19812500;127;;;;;;;;;;;;;;
4.730771;19815000;366;;;;;;;;;;;;;;
4.733271;19817500;250;;;;;;;;;;;;;;
4.735771;19820000;203;;;;;;;;;;;;;;
4.738271;19822500;169;;;;;;;;;;;;;;
4.740771;19825000;157;;;;;;;;;;;;;;
4.743271;19827500;168;;;;;;;;;;;;;;
4.745771;19830000;136;;;;;;;;;;;;;;
4.748271;19832500;153;;;;;;;;;;;;;;
4.750771;19835000;134;19835250;482.684;327.927;679.114;-14582.898;-13459.975;34021.953;19834805;-982.593;-5.056;74.232;2695.542;-1306.372;142.848
4.753271;19837500;167;;;;;;;;;;;;;;
4.755771;19840000;171;;;;;;;;;;;;;;
4.758271;19842500;157;;;;;;;;;;;;;;
4.760771;19845000;171;;;;;;;;;;;;;;
4.763271;19847500;333;;;;;;;;;;;;;;
4.765771;19850000;222;;;;;;;;;;;;;;
4.768271;19852500;172;;;;;;;;;;;;;;
4.770771;19855000;139;;;;;;;;;;;;;;
4.773271;19857500;143;;;;;;;;;;;;;;
4.775771;19860000;153;;;;;;;;;;;;;;
4.778271;19862500;174;;;;;;;;;;;;;;
4.780771;19865000;154;;;;;;;;;;;;;;
4.783271;19867500;158;19867341;484.426;304.29;688.645;-8778.315;-13612.538;35684.355;19866919;-980.446;-4.467;76.834;2788.703;-1104.116;107.268
4.785771;19870000;136;;;;;;;;;;;;;;
4.788271;19872500;127;;;;;;;;;;;;;;
4.790771;19875000;136;;;;;;;;;;;;;;
4.793271;19877500;143;;;;;;;;;;;;;;
4.795771;19880000;345;;;;;;;;;;;;;;
4.798271;19882500;220;;;;;;;;;;;;;;
4.800771;19885000;174;;;;;;;;;;;;;;
4.803271;19887500;152;;;;;;;;;;;;;;
4.805771;19890000;137;;;;;;;;;;;;;;
4.808271;19892500;152;;;;;;;;;;;;;;
4.810771;19895000;136;;;;;;;;;;;;;;
4.813271;19897500;142;;;;;;;;;;;;;;
4.815771;19900000;173;19899384;482.036;264.937;705.855;-5159.212;-11699.911;33347.137;19898944;-979.522;-7.367;78.281;2999.705;-1452.286;161.404
4.818271;19902500;156;;;;;;;;;;;;;;
4.820771;19905000;154;;;;;;;;;;;;;;
4.823271;19907500;141;;;;;;;;;;;;;;
4.825771;19910000;137;;;;;;;;;;;;;;
4.828271;19912500;297;;;;;;;;;;;;;;
4.830771;19915000;184;;;;;;;;;;;;;;
4.833271;19917500;156;;;;;;;;;;;;;;
4.835771;19920000;156;;;;;;;;;;;;;;
4.838271;19922500;157;;;;;;;;;;;;;;
4.840771;19925000;173;;;;;;;;;;;;;;
4.843271;19927500;140;;;;;;;;;;;;;;
4.845771;19930000;135;;;;;;;;19930881;-981.957;-4.882;74.312;2927.595;-1463.234;135.397
4.848271;19932500;135;19931316;490.203;229.511;717.502;-843.001;-13766.603;31962.842;;;;;;;
4.850771;19935000;135;;;;;;;;;;;;;;
4.853271;19937500;140;;;;;;;;;;;;;;
4.855771;19940000;170;;;;;;;;;;;;;;
4.858271;19942500;344;;;;;;;;;;;;;;
4.860771;19945000;232;;;;;;;;;;;;;;
4.863271;19947500;175;;;;;;;;;;;;;;
4.865771;19950000;136;;;;;;;;;;;;;;
4.868271;19952500;142;;;;;;;;;;;;;;
4.870771;19955000;144;;;;;;;;;;;;;;
4.873271;19957500;157;;;;;;;;;;;;;;
4.875771;19960000;169;;;;;;;;;;;;;;
4.878271;19962500;152;19963253;493.149;207.342;731.0;1339.836;-19678.398;29133.574;19962821;-983.623;-4.455;74.378;2632.028;-1529.197;164.064
4.880771;19965000;142;;;;;;;;;;;;;;
4.883271;19967500;139;;;;;;;;;;;;;;
4.885771;19970000;126;;;;;;;;;;;;;;
4.888271;19972500;142;;;;;;;;;;;;;;
4.890771;19975000;283;;;;;;;;;;;;;;
4.893271;19977500;190;;;;;;;;;;;;;;
4.895771;19980000;168;;;;;;;;;;;;;;
4.898271;19982500;156;;;;;;;;;;;;;;
4.900771;19985000;170;;;;;;;;;;;;;;
4.903271;19987500;137;;;;;;;;;;;;;;
4.905771;19990000;151;;;;;;;;;;;;;;
4.908271;19992500;143;19993641;498.894;195.127;732.996;-181.843;-28211.416;25780.332;19993211;-982.54;-4.733;74.869;2425.614;-1566.487;153.236
4.910771;19995000;125;;;;;;;;;;;;;;
4.913271;19997500;157;;;;;;;;;;;;;;
4.915771;20000000;151;;;;;;;;;;;;;;
4.918271;20002500;172;;;;;;;;;;;;;;
4.920771;20005000;22;;;;;;;;;;;;;;
4.923271;20007500;266;;;;;;;;;;;;;;
4.925771;20010000;191;;;;;;;;;;;;;;
4.928271;20012500;140;;;;;;;;;;;;;;
4.930771;20015000;155;20016207;509.476;185.883;725.968;-2119.188;-36562.344;22752.689;20015770;-982.488;-6.283;73.077;2267.583;-1727.038;180.574
4.933271;20017500;166;;;;;;;;;;;;;;
4.935771;20020000;151;;;;;;;;;;;;;;
4.938271;20022500;171;;;;;;;;;;;;;;
4.940771;20025000;144;;;;;;;;;;;;;;
4.943271;20027500;138;;;;;;;;;;;;;;
4.945771;20030000;125;;;;;;;;;;;;;;
4.948271;20032500;123;;;;;;;;;;;;;;
4.950771;20035000;126;;;;;;;;;;;;;;
4.953271;20037500;384;;;;;;;;;;;;;;
4.955771;20040000;251;;;;;;;;;;;;;;
4.958271;20042500;187;;;;;;;;;;;;;;
4.960771;20045000;184;;;;;;;;;;;;;;
4.963271;20047500;141;20048224;530.094;170.391;715.613;-2836.604;-43890.664;20528.305;20047794;-983.481;-11.441;74.852;2353.704;-907.436;-420.392
4.965771;20050000;134;;;;;;;;;;;;;;
4.968271;20052500;144;;;;;;;;;;;;;;
4.970771;20055000;136;;;;;;;;;;;;;;
4.973271;20057500;141;;;;;;;;;;;;;;
4.975771;20060000;152;;;;;;;;;;;;;;
4.978271;20062500;154;;;;;;;;;;;;;;
4.980771;20065000;171;;;;;;;;;;;;;;
4.983271;20067500;164;;;;;;;;;;;;;;
4.985771;20070000;363;;;;;;;;;;;;;;
4.988271;20072500;203;;;;;;;;;;;;;;
4.990771;20075000;155;;;;;;;;;;;;;;
4.993271;20077500;159;;;;;;;;20078359;-986.041;-7.752;76.411;3270.706;-104.752;-1108.997
4.995771;20080000;154;20078796;533.936;153.118;679.6;304.289;-47995.691;18719.639;;;;;;;
4.998271;20082500;171;;;;;;;;;;;;;;
5.000771;20085000;152;;;;;;;;;;;;;;
5.003271;20087500;140;;;;;;;;;;;;;;
5.005771;20090000;152;;;;;;;;;;;;;;
5.008271;20092500;127;;;;;;;;;;;;;;
5.010771;20095000;133;;;;;;;;;;;;;;
5.013271;20097500;141;;;;;;;;;;;;;;
5.015771;20100000;382;;;;;;;;;;;;;;
5.018271;20102500;248;;;;;;;;;;;;;;
5.020771;20105000;184;;;;;;;;;;;;;;
5.023271;20107500;151;;;;;;;;;;;;;;
5.025771;20110000;137;20110729;561.926;144.614;666.598;2983.637;-52023.219;17336.969;20110297;-990.755;-0.453;72.712;3354.796;130.173;-1108.673
5.028271;20112500;153;;;;;;;;;;;;;;
5.030771;20115000;135;;;;;;;;;;;;;;
5.033271;20117500;158;;;;;;;;;;;;;;
5.035771;20120000;153;;;;;;;;;;;;;;
5.038271;20122500;391;;;;;;;;;;;;;;
5.040771;20125000;268;;;;;;;;;;;;;;
5.043271;20127500;171;;;;;;;;;;;;;;
5.045771;20130000;166;;;;;;;;;;;;;;
5.048271;20132500;153;;;;;;;;;;;;;;
5.050771;20135000;135;;;;;;;;;;;;;;
5.053271;20137500;157;;;;;;;;;;;;;;
5.055771;20140000;143;;;;;;;;;;;;;;
5.058271;20142500;155;20142677;579.336;134.474;650.977;3020.393;-56857.809;16639.869;20142234;-989.09;-1.376;70.29;1520.181;-88.96;-978.864
5.060771;20145000;143;;;;;;;;;;;;;;
5.063271;20147500;157;;;;;;;;;;;;;;
5.065771;20150000;154;;;;;;;;;;;;;;
5.068271;20152500;126;;;;;;;;;;;;;;
5.070771;20155000;363;;;;;;;;;;;;;;
5.073271;20157500;220;;;;;;;;;;;;;;
5.075771;20160000;200;;;;;;;;;;;;;;
5.078271;20162500;182;;;;;;;;;;;;;;
5.080771;20165000;153;;;;;;;;;;;;;;
5.083271;20167500;157;;;;;;;;;;;;;;
5.085771;20170000;126;;;;;;;;;;;;;;
5.088271;20172500;125;;;;;;;;;;;;;;
5.090771;20175000;153;20174519;599.663;123.285;619.08;2873.748;-61625.23;16468.5;20174087;-986.867;-2.051;73.004;507.047;-357.512;-822.733
5.093271;20177500;141;;;;;;;;;;;;;;
5.095771;20180000;169;;;;;;;;;;;;;;
5.098271;20182500;171;;;;;;;;;;;;;;
5.100771;20185000;393;;;;;;;;;;;;;;
5.103271;20187500;250;;;;;;;;;;;;;;
5.105771;20190000;156;;;;;;;;;;;;;;
5.108271;20192500;154;;;;;;;;;;;;;;
5.110771;20195000;135;;;;;;;;;;;;;;
5.113271;20197500;158;;;;;;;;;;;;;;
5.115771;20200000;154;;;;;;;;;;;;;;
5.118271;20202500;154;;;;;;;;;;;;;;
5.120771;20205000;171;20206210;620.511;110.496;596.819;2125.435;-65664.281;16335.45;20205765;-988.075;-2.662;74.642;400.757;-369.824;-687.534
5.123271;20207500;138;;;;;;;;;;;;;;
5.125771;20210000;127;;;;;;;;;;;;;;
5.128271;20212500;127;;;;;;;;;;;;;;
5.130771;20215000;135;;;;;;;;;;;;;;
5.133271;20217500;377;;;;;;;;;;;;;;
5.135771;20220000;253;;;;;;;;;;;;;;
5.138271;20222500;184;;;;;;;;;;;;;;
5.140771;20225000;156;;;;;;;;;;;;;;
5.143271;20227500;140;;;;;;;;;;;;;;
5.145771;20230000;152;;;;;;;;;;;;;;
5.148271;20232500;126;;;;;;;;;;;;;;
5.150771;20235000;155;;;;;;;;20236067;-989.655;-2.413;73.448;760.469;-372.77;-588.407
5.153271;20237500;140;20236502;642.794;102.147;573.072;2604.101;-68055.875;15975.428;;;;;;;
5.155771;20240000;151;;;;;;;;;;;;;;
5.158271;20242500;172;;;;;;;;;;;;;;
5.160771;20245000;172;;;;;;;;;;;;;;
5.163271;20247500;141;;;;;;;;;;;;;;
5.165771;20250000;310;;;;;;;;;;;;;;
5.168271;20252500;188;;;;;;;;;;;;;;
5.170771;20255000;170;;;;;;;;;;;;;;
5.173271;20257500;168;;;;;;;;;;;;;;
5.175771;20260000;171;;;;;;;;;;;;;;
5.178271;20262500;153;;;;;;;;;;;;;;
5.180771;20265000;144;;;;;;;;;;;;;;
5.183271;20267500;158;20268363;659.838;89.579;545.577;3214.583;-68934.891;14795.156;20267920;-987.606;-2.768;70.806;815.196;-495.444;-476.737
5.185771;20270000;135;;;;;;;;;;;;;;
5.188271;20272500;127;;;;;;;;;;;;;;
5.190771;20275000;136;;;;;;;;;;;;;;
5.193271;20277500;141;;;;;;;;;;;;;;
5.195771;20280000;0;;;;;;;;;;;;;;
5.198271;20282500;285;;;;;;;;;;;;;;
5.200771;20285000;220;;;;;;;;;;;;;;
5.203271;20287500;174;;;;;;;;;;;;;;
5.205771;20290000;155;;;;;;;;;;;;;;
5.208271;20292500;126;;;;;;;;;;;;;;
5.210771;20295000;152;;;;;;;;;;;;;;
5.213271;20297500;143;;;;;;;;;;;;;;
5.215771;20300000;171;20300128;675.518;77.128;518.945;4372.479;-69080.016;13876.898;20299692;-987.648;-2.13;69.682;411.748;-475.922;-373.713
5.218271;20302500;172;;;;;;;;;;;;;;
5.220771;20305000;152;;;;;;;;;;;;;;
5.223271;20307500;141;;;;;;;;;;;;;;
5.225771;20310000;153;;;;;;;;;;;;;;
5.228271;20312500;407;;;;;;;;;;;;;;
5.230771;20315000;250;;;;;;;;;;;;;;
5.233271;20317500;173;;;;;;;;;;;;;;
5.235771;20320000;184;;;;;;;;;;;;;;
5.238271;20322500;187;;;;;;;;;;;;;;
5.240771;20325000;152;;;;;;;;;;;;;;
5.243271;20327500;158;;;;;;;;;;;;;;
5.245771;20330000;126;;;;;;;;;;;;;;
5.248271;20332500;143;20331895;691.488;65.909;488.093;5077.855;-68788.703;13408.366;20331449;-986.26;-3.109;67.918;-356.964;-464.814;-261.84
5.250771;20335000;134;;;;;;;;;;;;;;
5.253271;20337500;159;;;;;;;;;;;;;;
5.255771;20340000;170;;;;;;;;;;;;;;
5.258271;20342500;282;;;;;;;;;;;;;;
5.260771;20345000;264;;;;;;;;;;;;;;
5.263271;20347500;183;;;;;;;;;;;;;;
5.265771;20350000;166;;;;;;;;;;;;;;
5.268271;20352500;154;;;;;;;;;;;;;;
5.270771;20355000;137;;;;;;;;;;;;;;
5.273271;20357500;160;;;;;;;;;;;;;;
5.275771;20360000;170;;;;;;;;;;;;;;
5.278271;20362500;154;20363737;705.579;60.271;456.356;5091.275;-68231.078;14214.51;20363302;-988.602;0.487;70.799;-1035.616;-300.698;25.565
5.280771;20365000;171;;;;;;;;;;;;;;
5.283271;20367500;141;;;;;;;;;;;;;;
5.285771;20370000;154;;;;;;;;;;;;;;
5.288271;20372500;134;;;;;;;;;;;;;;
5.290771;20375000;362;;;;;;;;;;;;;;
5.293271;20377500;231;;;;;;;;;;;;;;
5.295771;20380000;184;;;;;;;;;;;;;;
5.298271;20382500;186;;;;;;;;;;;;;;
5.300771;20385000;153;;;;;;;;;;;;;;
5.303271;20387500;141;;;;;;;;;;;;;;
5.305771;20390000;134;;;;;;;;;;;;;;
5.308271;20392500;125;;;;;;;;20393431;-988.997;0.316;73.572;-1419.147;-313.225;85.099
5.310771;20395000;153;20393878;718.758;50.474;424.602;5272.898;-67019.711;14891.097;;;;;;;
5.313271;20397500;139;;;;;;;;;;;;;;
5.315771;20400000;144;;;;;;;;;;;;;;
5.318271;20402500;156;;;;;;;;;;;;;;
5.320771;20405000;153;;;;;;;;;;;;;;
5.323271;20407500;328;;;;;;;;;;;;;;
5.325771;20410000;190;;;;;;;;;;;;;;
5.328271;20412500;169;;;;;;;;;;;;;;
5.330771;20415000;138;20416160;733.048;45.102;396.247;5460.753;-65579.719;15247.729;20415730;-990.177;-0.176;78.208;-1547.253;-303.689;111.907
5.333271;20417500;142;;;;;;;;;;;;;;
5.335771;20420000;173;;;;;;;;;;;;;;
5.338271;20422500;175;;;;;;;;;;;;;;
5.340771;20425000;154;;;;;;;;;;;;;;
5.343271;20427500;142;;;;;;;;;;;;;;
5.345771;20430000;128;;;;;;;;;;;;;;
5.348271;20432500;144;;;;;;;;;;;;;;
5.350771;20435000;137;;;;;;;;;;;;;;
5.353271;20437500;202;;;;;;;;;;;;;;
5.355771;20440000;282;;;;;;;;;;;;;;
5.358271;20442500;204;;;;;;;;;;;;;;
5.360771;20445000;189;;;;;;;;;;;;;;
5.363271;20447500;144;20448033;744.335;35.337;366.596;4881.466;-64130.355;15320.53;20447580;-990.005;-0.557;80.812;-1347.39;-291.13;87.499
5.365771;20450000;152;;;;;;;;;;;;;;
5.368271;20452500;125;;;;;;;;;;;;;;
5.370771;20455000;128;;;;;;;;;;;;;;
5.373271;20457500;158;;;;;;;;;;;;;;
5.375771;20460000;152;;;;;;;;;;;;;;
5.378271;20462500;172;;;;;;;;;;;;;;
5.380771;20465000;152;;;;;;;;;;;;;;
5.383271;20467500;156;;;;;;;;;;;;;;
5.385771;20470000;391;;;;;;;;;;;;;;
5.388271;20472500;230;;;;;;;;;;;;;;
5.390771;20475000;186;;;;;;;;;;;;;;
5.393271;20477500;154;20478228;755.614;24.597;338.884;4899.455;-62014.086;15046.691;20477798;-989.359;-0.523;81.512;-1122.52;-268.698;58.624
5.395771;20480000;174;;;;;;;;;;;;;;
5.398271;20482500;153;;;;;;;;;;;;;;
5.400771;20485000;172;;;;;;;;;;;;;;
5.403271;20487500;158;;;;;;;;;;;;;;
5.405771;20490000;152;;;;;;;;;;;;;;
5.408271;20492500;153;;;;;;;;;;;;;;
5.410771;20495000;136;;;;;;;;;;;;;;
5.413271;20497500;158;;;;;;;;;;;;;;
5.415771;20500000;216;;;;;;;;;;;;;;
5.418271;20502500;281;;;;;;;;;;;;;;
5.420771;20505000;204;;;;;;;;;;;;;;
5.423271;20507500;153;;;;;;;;;;;;;;
5.425771;20510000;155;20510017;765.816;14.022;312.241;2974.482;-58823.258;14357.794;20509563;-989.338;-0.393;81.346;-995.519;-239.951;39.505
5.428271;20512500;124;;;;;;;;;;;;;;
5.430771;20515000;135;;;;;;;;;;;;;;
5.433271;20517500;158;;;;;;;;;;;;;;
5.435771;20520000;142;;;;;;;;;;;;;;
5.438271;20522500;408;;;;;;;;;;;;;;
5.440771;20525000;264;;;;;;;;;;;;;;
5.443271;20527500;190;;;;;;;;;;;;;;
5.445771;20530000;160;;;;;;;;;;;;;;
5.448271;20532500;127;;;;;;;;;;;;;;
5.450771;20535000;152;;;;;;;;;;;;;;
5.453271;20537500;140;;;;;;;;;;;;;;
5.455771;20540000;142;;;;;;;;20541240;-989.177;0.279;80.737;-916.868;-263.828;34.467
5.458271;20542500;172;20541682;783.029;2.939;280.622;365.258;-53873.531;12987.154;;;;;;;
5.460771;20545000;153;;;;;;;;;;;;;;
5.463271;20547500;138;;;;;;;;;;;;;;
5.465771;20550000;136;;;;;;;;;;;;;;
5.468271;20552500;124;;;;;;;;;;;;;;
5.470771;20555000;333;;;;;;;;;;;;;;
5.473271;20557500;222;;;;;;;;;;;;;;
5.475771;20560000;174;;;;;;;;;;;;;;
5.478271;20562500;166;;;;;;;;;;;;;;
5.480771;20565000;155;;;;;;;;;;;;;;
5.483271;20567500;139;;;;;;;;;;;;;;
5.485771;20570000;125;;;;;;;;;;;;;;
5.488271;20572500;152;20573095;792.97;-2.814;252.146;1263.12;-45540.918;11203.797;20572658;-988.708;-0.534;79.494;-1068.775;-260.699;47.182
5.490771;20575000;135;;;;;;;;;;;;;;
5.493271;20577500;139;;;;;;;;;;;;;;
5.495771;20580000;151;;;;;;;;;;;;;;
5.498271;20582500;154;;;;;;;;;;;;;;
5.500771;20585000;377;;;;;;;;;;;;;;
5.503271;20587500;219;;;;;;;;;;;;;;
5.505771;20590000;156;;;;;;;;;;;;;;
5.508271;20592500;137;;;;;;;;;;;;;;
5.510771;20595000;137;;;;;;;;;;;;;;
5.513271;20597500;157;;;;;;;;;;;;;;
5.515771;20600000;152;;;;;;;;;;;;;;
5.518271;20602500;153;;;;;;;;;;;;;;
5.520771;20605000;153;20604854;805.037;-10.725;228.651;-822.598;-34351.996;10270.419;20604423;-988.243;-0.983;81.546;-419.899;-237.164;56.198
5.523271;20607500;137;;;;;;;;;;;;;;
5.525771;20610000;153;;;;;;;;;;;;;;
5.528271;20612500;150;;;;;;;;;;;;;;
5.530771;20615000;137;;;;;;;;;;;;;;
5.533271;20617500;313;;;;;;;;;;;;;;
5.535771;20620000;216;;;;;;;;;;;;;;
5.538271;20622500;187;;;;;;;;;;;;;;
5.540771;20625000;174;;;;;;;;;;;;;;
5.543271;20627500;157;;;;;;;;;;;;;;
5.545771;20630000;126;;;;;;;;;;;;;;
5.548271;20632500;144;;;;;;;;;;;;;;
5.550771;20635000;134;20635084;819.655;-18.881;218.133;3722.594;-20677.521;5833.835;20634638;-990.687;-4.277;78.616;-116.279;-42.431;-45.925
5.553271;20637500;157;;;;;;;;;;;;;;
5.555771;20640000;153;;;;;;;;;;;;;;
5.558271;20642500;173;;;;;;;;;;;;;;
5.560771;20645000;171;;;;;;;;;;;;;;
5.563271;20647500;250;;;;;;;;;;;;;;
5.565771;20650000;266;;;;;;;;;;;;;;
5.568271;20652500;169;;;;;;;;;;;;;;
5.570771;20655000;167;;;;;;;;;;;;;;
5.573271;20657500;166;;;;;;;;;;;;;;
5.575771;20660000;153;;;;;;;;;;;;;;
5.578271;20662500;172;;;;;;;;;;;;;;
5.580771;20665000;169;;;;;;;;;;;;;;
5.583271;20667500;157;20666740;815.919;-18.682;223.196;6201.277;-9281.457;-1995.544;20666318;-987.976;-1.989;79.309;484.098;38.003;-55.879
5.585771;20670000;153;;;;;;;;;;;;;;
5.588271;20672500;153;;;;;;;;;;;;;;
5.590771;20675000;128;;;;;;;;;;;;;;
5.593271;20677500;141;;;;;;;;;;;;;;
5.595771;20680000;375;;;;;;;;;;;;;;
5.598271;20682500;252;;;;;;;;;;;;;;
5.600771;20685000;202;;;;;;;;;;;;;;
5.603271;20687500;152;;;;;;;;20688443;-987.725;-1.767;79.229;488.33;24.29;-74.522
5.605771;20690000;136;20688883;809.685;-15.314;235.826;5724.088;1728.116;-8799.955;;;;;;;
5.608271;20692500;151;;;;;;;;;;;;;;
5.610771;20695000;144;;;;;;;;;;;;;;
5.613271;20697500;139;;;;;;;;;;;;;;
5.615771;20700000;152;;;;;;;;;;;;;;
5.618271;20702500;155;;;;;;;;;;;;;;
5.620771;20705000;152;;;;;;;;;;;;;;
5.623271;20707500;164;;;;;;;;;;;;;;
5.625771;20710000;128;;;;;;;;;;;;;;
5.628271;20712500;301;;;;;;;;;;;;;;
5.630771;20715000;186;;;;;;;;;;;;;;
5.633271;20717500;157;20718566;844.951;-19.214;251.351;4515.634;14152.897;-11986.395;20718138;-987.987;-4.265;76.128;-394.461;643.888;-253.234
5.635771;20720000;156;;;;;;;;;;;;;;
5.638271;20722500;157;;;;;;;;;;;;;;
5.640771;20725000;169;;;;;;;;;;;;;;
5.643271;20727500;137;;;;;;;;;;;;;;
5.645771;20730000;126;;;;;;;;;;;;;;
5.648271;20732500;126;;;;;;;;;;;;;;
5.650771;20735000;125;;;;;;;;;;;;;;
5.653271;20737500;141;;;;;;;;;;;;;;
5.655771;20740000;153;;;;;;;;;;;;;;
5.658271;20742500;330;;;;;;;;;;;;;;
5.660771;20745000;215;;;;;;;;;;;;;;
5.663271;20747500;157;;;;;;;;;;;;;;
5.665771;20750000;136;20750430;836.772;-14.99;273.724;3166.79;22421.877;-12410.387;20749990;-986.875;-8.743;79.343;-771.113;224.944;-132.072
5.668271;20752500;128;;;;;;;;;;;;;;
5.670771;20755000;155;;;;;;;;;;;;;;
5.673271;20757500;139;;;;;;;;;;;;;;
5.675771;20760000;143;;;;;;;;;;;;;;
5.678271;20762500;172;;;;;;;;;;;;;;
5.680771;20765000;150;;;;;;;;;;;;;;
5.683271;20767500;156;;;;;;;;;;;;;;
5.685771;20770000;126;;;;;;;;;;;;;;
5.688271;20772500;366;;;;;;;;;;;;;;
5.690771;20775000;270;;;;;;;;;;;;;;
5.693271;20777500;184;;;;;;;;;;;;;;
5.695771;20780000;185;;;;;;;;;;;;;;
5.698271;20782500;157;20782264;840.494;4.175;259.233;3125.262;31843.658;-11754.867;20781842;-991.595;-4.957;66.567;-611.37;1263.697;-388.406
5.700771;20785000;152;;;;;;;;;;;;;;
5.703271;20787500;159;;;;;;;;;;;;;;
5.705771;20790000;152;;;;;;;;;;;;;;
5.708271;20792500;125;;;;;;;;;;;;;;
5.710771;20795000;2;;;;;;;;;;;;;;
5.713271;20797500;248;;;;;;;;;;;;;;
5.715771;20800000;207;;;;;;;;;;;;;;
5.718271;20802500;184;;;;;;;;;;;;;;
5.720771;20805000;155;;;;;;;;;;;;;;
5.723271;20807500;139;;;;;;;;;;;;;;
5.725771;20810000;141;;;;;;;;;;;;;;
5.728271;20812500;126;;;;;;;;20813607;-988.004;-3.288;68.845;-522.614;1050.449;-326.548
5.730771;20815000;152;20814052;831.605;-6.495;288.562;2399.374;41056.414;-13205.437;;;;;;;
5.733271;20817500;157;;;;;;;;;;;;;;
5.735771;20820000;152;;;;;;;;;;;;;;
5.738271;20822500;171;;;;;;;;;;;;;;
5.740771;20825000;376;;;;;;;;;;;;;;
5.743271;20827500;221;;;;;;;;;;;;;;
5.745771;20830000;173;;;;;;;;;;;;;;
5.748271;20832500;127;;;;;;;;;;;;;;
5.750771;20835000;152;;;;;;;;;;;;;;
5.753271;20837500;140;;;;;;;;;;;;;;
5.755771;20840000;173;;;;;;;;;;;;;;
5.758271;20842500;173;;;;;;;;;;;;;;
5.760771;20845000;151;20845714;815.669;-1.248;318.859;1910.156;50514.656;-11108.852;20845284;-985.86;-2.514;70.697;-352.108;930.114;-258.596
5.763271;20847500;156;;;;;;;;;;;;;;
5.765771;20850000;124;;;;;;;;;;;;;;
5.768271;20852500;141;;;;;;;;;;;;;;
5.770771;20855000;127;;;;;;;;;;;;;;
5.773271;20857500;348;;;;;;;;;;;;;;
5.775771;20860000;238;;;;;;;;;;;;;;
5.778271;20862500;175;;;;;;;;;;;;;;
5.780771;20865000;181;;;;;;;;;;;;;;
5.783271;20867500;158;;;;;;;;;;;;;;
5.785771;20870000;125;;;;;;;;;;;;;;
5.788271;20872500;140;;;;;;;;;;;;;;
5.790771;20875000;126;20875938;796.577;12.515;337.851;3248.773;60904.359;-9662.222;20875501;-984.794;-3.815;64.881;58.81;665.734;-264.478
5.793271;20877500;157;;;;;;;;;;;;;;
5.795771;20880000;169;;;;;;;;;;;;;;
5.798271;20882500;152;;;;;;;;;;;;;;
5.800771;20885000;170;;;;;;;;;;;;;;
5.803271;20887500;137;;;;;;;;;;;;;;
5.805771;20890000;296;;;;;;;;;;;;;;
5.808271;20892500;172;;;;;;;;;;;;;;
5.810771;20895000;141;;;;;;;;;;;;;;
5.813271;20897500;143;;;;;;;;;;;;;;
5.815771;20900000;153;;;;;;;;;;;;;;
5.818271;20902500;174;;;;;;;;;;;;;;
5.820771;20905000;152;;;;;;;;;;;;;;
5.823271;20907500;156;20907436;765.41;6.967;363.738;4761.521;65760.391;-8911.798;20907005;-982.524;-3.143;67.194;1272.557;587.822;-296.754
5.825771;20910000;124;;;;;;;;;;;;;;
5.828271;20912500;123;;;;;;;;;;;;;;
5.830771;20915000;136;;;;;;;;;;;;;;
5.833271;20917500;155;;;;;;;;;;;;;;
5.835771;20920000;0;;;;;;;;;;;;;;
5.838271;20922500;265;;;;;;;;;;;;;;
5.840771;20925000;188;;;;;;;;;;;;;;
5.843271;20927500;152;;;;;;;;;;;;;;
5.845771;20930000;152;;;;;;;;;;;;;;
5.848271;20932500;123;;;;;;;;;;;;;;
5.850771;20935000;127;;;;;;;;;;;;;;
5.853271;20937500;141;;;;;;;;20938595;-984.028;-2.699;67.403;2943.179;-163.444;-138.854
5.855771;20940000;171;20939035;738.406;4.038;399.17;5923.883;74500.562;-5518.333;;;;;;;
5.858271;20942500;152;;;;;;;;;;;;;;
5.860771;20945000;150;;;;;;;;;;;;;;
5.863271;20947500;139;;;;;;;;;;;;;;
5.865771;20950000;126;;;;;;;;;;;;;;
5.868271;20952500;360;;;;;;;;;;;;;;
5.870771;20955000;206;;;;;;;;;;;;;;
5.873271;20957500;158;;;;;;;;;;;;;;
5.875771;20960000;156;;;;;;;;;;;;;;
5.878271;20962500;153;;;;;;;;;;;;;;
5.880771;20965000;168;;;;;;;;;;;;;;
5.883271;20967500;135;;;;;;;;;;;;;;
5.885771;20970000;122;20970616;702.017;10.729;429.738;6284.813;82872.844;-653.479;20970188;-979.131;-2.283;67.68;3791.77;-727.522;-70.224
5.888271;20972500;123;;;;;;;;;;;;;;
5.890771;20975000;126;;;;;;;;;;;;;;
5.893271;20977500;156;;;;;;;;;;;;;;
5.895771;20980000;152;;;;;;;;;;;;;;
5.898271;20982500;382;;;;;;;;;;;;;;
5.900771;20985000;233;;;;;;;;;;;;;;
5.903271;20987500;186;;;;;;;;;;;;;;
5.905771;20990000;136;;;;;;;;;;;;;;
5.908271;20992500;123;;;;;;;;;;;;;;
5.910771;20995000;144;;;;;;;;;;;;;;
5.913271;20997500;139;;;;;;;;;;;;;;
5.915771;21000000;170;;;;;;;;;;;;;;
5.918271;21002500;154;21002218;661.334;15.585;458.118;3476.823;87836.203;4077.507;21001779;-999.928;6.499;68.652;5006.119;-1227.521;-132.338
5.920771;21005000;143;;;;;;;;;;;;;;
5.923271;21007500;139;;;;;;;;;;;;;;
5.925771;21010000;152;;;;;;;;;;;;;;
5.928271;21012500;140;;;;;;;;;;;;;;
5.930771;21015000;286;;;;;;;;;;;;;;
5.933271;21017500;190;;;;;;;;;;;;;;
5.935771;21020000;170;;;;;;;;;;;;;;
5.938271;21022500;175;;;;;;;;;;;;;;
5.940771;21025000;169;;;;;;;;;;;;;;
5.943271;21027500;136;;;;;;;;;;;;;;
5.945771;21030000;143;;;;;;;;;;;;;;
5.948271;21032500;142;21032343;619.752;14.995;484.263;2413.982;92268.328;6509.132;21031908;-989.886;0.355;74.442;5571.312;-3013.27;268.467
5.950771;21035000;152;;;;;;;;;;;;;;
5.953271;21037500;165;;;;;;;;;;;;;;
5.955771;21040000;169;;;;;;;;;;;;;;
5.958271;21042500;152;;;;;;;;;;;;;;
5.960771;21045000;16;;;;;;;;;;;;;;
5.963271;21047500;266;;;;;;;;;;;;;;
5.965771;21050000;183;;;;;;;;;;;;;;
5.968271;21052500;152;;;;;;;;;;;;;;
5.970771;21055000;137;21054553;576.918;11.793;507.684;2621.407;95803.352;8543.551;21054121;-992.468;13.812;68.012;6147.184;-5346.294;567.856
5.973271;21057500;155;;;;;;;;;;;;;;
5.975771;21060000;151;;;;;;;;;;;;;;
5.978271;21062500;172;;;;;;;;;;;;;;
5.980771;21065000;151;;;;;;;;;;;;;;
5.983271;21067500;157;;;;;;;;;;;;;;
5.985771;21070000;126;;;;;;;;;;;;;;
5.988271;21072500;135;;;;;;;;;;;;;;
5.990771;21075000;134;;;;;;;;;;;;;;
5.993271;21077500;344;;;;;;;;;;;;;;
5.995771;21080000;250;;;;;;;;;;;;;;
5.998271;21082500;204;;;;;;;;;;;;;;
6.000771;21085000;155;21086229;539.331;11.6;536.956;2278.15;99088.117;11764.686;21085799;-1004.631;19.886;76.799;5613.637;-7197.354;830.838
6.003271;21087500;139;;;;;;;;;;;;;;
6.005771;21090000;126;;;;;;;;;;;;;;
6.008271;21092500;123;;;;;;;;;;;;;;
6.010771;21095000;150;;;;;;;;;;;;;;
6.013271;21097500;136;;;;;;;;;;;;;;
6.015771;21100000;152;;;;;;;;;;;;;;
6.018271;21102500;153;;;;;;;;;;;;;;
6.020771;21105000;168;;;;;;;;;;;;;;
6.023271;21107500;136;;;;;;;;;;;;;;
6.025771;21110000;266;;;;;;;;;;;;;;
6.028271;21112500;171;;;;;;;;;;;;;;
6.030771;21115000;140;;;;;;;;21116102;-1003.523;16.336;87.453;6089.83;-11341.111;1155.921
6.033271;21117500;168;21116540;495.223;15.601;561.031;4189.867;102450.148;13560.389;;;;;;;
6.035771;21120000;169;;;;;;;;;;;;;;
6.038271;21122500;155;;;;;;;;;;;;;;
6.040771;21125000;144;;;;;;;;;;;;;;
6.043271;21127500;138;;;;;;;;;;;;;;
6.045771;21130000;124;;;;;;;;;;;;;;
6.048271;21132500;124;;;;;;;;;;;;;;
6.050771;21135000;128;;;;;;;;;;;;;;
6.053271;21137500;141;;;;;;;;;;;;;;
6.055771;21140000;301;;;;;;;;;;;;;;
6.058271;21142500;207;;;;;;;;;;;;;;
6.060771;21145000;169;;;;;;;;;;;;;;
6.063271;21147500;143;21148557;446.093;20.732;575.966;5437.249;105888.203;14601.307;21148127;-1002.623;16.696;93.054;6272.713;-15824.556;1549.188
6.065771;21150000;135;;;;;;;;;;;;;;
6.068271;21152500;142;;;;;;;;;;;;;;
6.070771;21155000;133;;;;;;;;;;;;;;
6.073271;21157500;138;;;;;;;;;;;;;;
6.075771;21160000;249;;;;;;;;;;;;;;
6.078271;21162500;283;;;;;;;;;;;;;;
6.080771;21165000;215;;;;;;;;;;;;;;
6.083271;21167500;152;;;;;;;;;;;;;;
6.085771;21170000;151;;;;;;;;;;;;;;
6.088271;21172500;126;;;;;;;;;;;;;;
6.090771;21175000;155;;;;;;;;;;;;;;
6.093271;21177500;160;;;;;;;;;;;;;;
6.095771;21180000;154;21180671;396.021;26.582;584.622;7533.137;109028.789;14608.866;21180239;-999.76;17.551;97.691;5938.078;-19781.078;2216.791
6.098271;21182500;154;;;;;;;;;;;;;;
6.100771;21185000;170;;;;;;;;;;;;;;
6.103271;21187500;157;;;;;;;;;;;;;;
6.105771;21190000;151;;;;;;;;;;;;;;
6.108271;21192500;381;;;;;;;;;;;;;;
6.110771;21195000;231;;;;;;;;;;;;;;
6.113271;21197500;190;;;;;;;;;;;;;;
6.115771;21200000;184;;;;;;;;;;;;;;
6.118271;21202500;174;;;;;;;;;;;;;;
6.120771;21205000;151;;;;;;;;;;;;;;
6.123271;21207500;153;;;;;;;;;;;;;;
6.125771;21210000;124;;;;;;;;;;;;;;
6.128271;21212500;142;21212700;351.698;32.128;594.107;9636.23;110107.914;13718.735;21212265;-995.791;17.235;100.761;5089.049;-22310.836;2754.764
6.130771;21215000;151;;;;;;;;;;;;;;
6.133271;21217500;158;;;;;;;;;;;;;;
6.135771;21220000;142;;;;;;;;;;;;;;
6.138271;21222500;28;;;;;;;;;;;;;;
6.140771;21225000;280;;;;;;;;;;;;;;
6.143271;21227500;190;;;;;;;;;;;;;;
6.145771;21230000;157;;;;;;;;;;;;;;
6.148271;21232500;125;;;;;;;;;;;;;;
6.150771;21235000;154;;;;;;;;;;;;;;
6.153271;21237500;156;;;;;;;;;;;;;;
6.155771;21240000;153;;;;;;;;;;;;;;
6.158271;21242500;153;;;;;;;;;;;;;;
6.160771;21245000;144;21244816;309.347;40.739;603.168;11121.419;109399.703;12933.924;21244376;-990.025;16.69;110.796;4350.721;-23752.043;3421.588
6.163271;21247500;138;;;;;;;;;;;;;;
6.165771;21250000;152;;;;;;;;;;;;;;
6.168271;21252500;125;;;;;;;;;;;;;;
6.170771;21255000;375;;;;;;;;;;;;;;
6.173271;21257500;234;;;;;;;;;;;;;;
6.175771;21260000;184;;;;;;;;;;;;;;
6.178271;21262500;186;;;;;;;;;;;;;;
6.180771;21265000;154;;;;;;;;;;;;;;
6.183271;21267500;140;;;;;;;;;;;;;;
6.185771;21270000;150;;;;;;;;;;;;;;
6.188271;21272500;124;;;;;;;;;;;;;;
6.190771;21275000;135;21275455;267.961;44.552;613.208;11750.973;107733.344;11952.54;21275027;-985.005;18.375;125.197;3784.498;-24353.816;3689.321
6.193271;21277500;140;;;;;;;;;;;;;;
6.195771;21280000;153;;;;;;;;;;;;;;
6.198271;21282500;174;;;;;;;;;;;;;;
6.200771;21285000;154;;;;;;;;;;;;;;
6.203271;21287500;335;;;;;;;;;;;;;;
6.205771;21290000;203;;;;;;;;;;;;;;
6.208271;21292500;152;;;;;;;;;;;;;;
6.210771;21295000;159;;;;;;;;;;;;;;
6.213271;21297500;168;;;;;;;;;;;;;;
6.215771;21300000;173;;;;;;;;;;;;;;
6.218271;21302500;155;;;;;;;;;;;;;;
6.220771;21305000;152;;;;;;;;;;;;;;
6.223271;21307500;156;21307666;228.046;51.755;618.221;12079.986;105976.172;11193.038;21307226;-979.778;22.892;138.402;2840.148;-24143.688;4094.167
6.225771;21310000;126;;;;;;;;;;;;;;
6.228271;21312500;143;;;;;;;;;;;;;;
6.230771;21315000;134;;;;;;;;;;;;;;
6.233271;21317500;140;;;;;;;;;;;;;;
6.235771;21320000;327;;;;;;;;;;;;;;
6.238271;21322500;218;;;;;;;;;;;;;;
6.240771;21325000;188;;;;;;;;;;;;;;
6.243271;21327500;142;;;;;;;;;;;;;;
6.245771;21330000;153;;;;;;;;;;;;;;
6.248271;21332500;126;;;;;;;;;;;;;;
6.250771;21335000;127;;;;;;;;;;;;;;
6.253271;21337500;159;;;;;;;;;;;;;;
6.255771;21340000;170;21339854;185.363;61.367;624.837;12001.862;103674.234;10470.636;21339424;-975.155;24.687;150.283;1762.328;-23196.377;4375.521
6.258271;21342500;174;;;;;;;;;;;;;;
6.260771;21345000;152;;;;;;;;;;;;;;
6.263271;21347500;140;;;;;;;;;;;;;;
6.265771;21350000;136;;;;;;;;;;;;;;
6.268271;21352500;296;;;;;;;;;;;;;;
6.270771;21355000;207;;;;;;;;;;;;;;
6.273271;21357500;157;;;;;;;;;;;;;;
6.275771;21360000;155;;;;;;;;;;;;;;
6.278271;21362500;172;;;;;;;;;;;;;;
6.280771;21365000;169;;;;;;;;;;;;;;
6.283271;21367500;155;;;;;;;;;;;;;;
6.285771;21370000;125;;;;;;;;;;;;;;
6.288271;21372500;142;21372062;137.238;60.47;640.687;11194.395;100145.148;8578.604;21371624;-971.769;25.094;165.277;398.461;-21799.434;4659.433
6.290771;21375000;152;;;;;;;;;;;;;;
6.293271;21377500;139;;;;;;;;;;;;;;
6.295771;21380000;170;;;;;;;;;;;;;;
6.298271;21382500;331;;;;;;;;;;;;;;
6.300771;21385000;235;;;;;;;;;;;;;;
6.303271;21387500;174;;;;;;;;;;;;;;
6.305771;21390000;136;;;;;;;;;;;;;;
6.308271;21392500;152;;;;;;;;;;;;;;
6.310771;21395000;136;;;;;;;;;;;;;;
6.313271;21397500;157;;;;;;;;;;;;;;
6.315771;21400000;170;;;;;;;;;;;;;;
6.318271;21402500;171;;;;;;;;21403475;-963.593;25.169;179.596;-278.149;-20939.586;4646.961
6.320771;21405000;160;21403906;92.318;78.888;666.651;8431.425;94585.766;7804.923;;;;;;;
6.323271;21407500;136;;;;;;;;;;;;;;
6.325771;21410000;125;;;;;;;;;;;;;;
6.328271;21412500;124;;;;;;;;;;;;;;
6.330771;21415000;309;;;;;;;;;;;;;;
6.333271;21417500;205;;;;;;;;;;;;;;
6.335771;21420000;172;;;;;;;;;;;;;;
6.338271;21422500;156;;;;;;;;;;;;;;
6.340771;21425000;152;;;;;;;;;;;;;;
6.343271;21427500;137;;;;;;;;;;;;;;
6.345771;21430000;126;;;;;;;;;;;;;;
6.348271;21432500;123;;;;;;;;;;;;;;
6.350771;21435000;152;21434217;51.175;81.013;672.95;7502.354;88876.914;6901.927;21433777;-959.156;26.716;188.989;-335.992;-19944.668;4244.863
6.353271;21437500;160;;;;;;;;;;;;;;
6.355771;21440000;151;;;;;;;;;;;;;;
6.358271;21442500;154;;;;;;;;;;;;;;
6.360771;21445000;142;;;;;;;;;;;;;;
6.363271;21447500;302;;;;;;;;;;;;;;
6.365771;21450000;200;;;;;;;;;;;;;;
6.368271;21452500;138;;;;;;;;;;;;;;
6.370771;21455000;136;;;;;;;;;;;;;;
6.373271;21457500;139;21456678;11.815;85.198;675.586;5978.798;82751.32;5873.456;21456251;-955.759;26.369;198.803;-595.692;-19083.934;4263.182
6.375771;21460000;170;;;;;;;;;;;;;;
6.378271;21462500;154;;;;;;;;;;;;;;
6.380771;21465000;168;;;;;;;;;;;;;;
6.383271;21467500;137;;;;;;;;;;;;;;
6.385771;21470000;125;;;;;;;;;;;;;;
6.388271;21472500;144;;;;;;;;;;;;;;
6.390771;21475000;127;;;;;;;;;;;;;;
6.393271;21477500;0;;;;;;;;;;;;;;
6.395771;21480000;284;;;;;;;;;;;;;;
6.398271;21482500;203;;;;;;;;;;;;;;
6.400771;21485000;185;;;;;;;;;;;;;;
6.403271;21487500;141;21488542;-23.698;87.465;676.381;4369.546;76686.562;5463.845;21488102;-953.355;27.448;206.913;-712.032;-18192.299;4358.023
6.405771;21490000;126;;;;;;;;;;;;;;
6.408271;21492500;126;;;;;;;;;;;;;;
6.410771;21495000;136;;;;;;;;;;;;;;
6.413271;21497500;159;;;;;;;;;;;;;;
6.415771;21500000;169;;;;;;;;;;;;;;
6.418271;21502500;155;;;;;;;;;;;;;;
6.420771;21505000;171;;;;;;;;;;;;;;
6.423271;21507500;156;;;;;;;;;;;;;;
6.425771;21510000;331;;;;;;;;;;;;;;
6.428271;21512500;250;;;;;;;;;;;;;;
6.430771;21515000;168;;;;;;;;;;;;;;
6.433271;21517500;153;;;;;;;;21518492;-949.266;25.227;227.007;-643.618;-17548.684;4315.122
6.435771;21520000;173;21518920;-50.884;83.293;685.097;2201.568;71463.172;6616.028;;;;;;;
6.438271;21522500;156;;;;;;;;;;;;;;
6.440771;21525000;153;;;;;;;;;;;;;;
6.443271;21527500;139;;;;;;;;;;;;;;
6.445771;21530000;152;;;;;;;;;;;;;;
6.448271;21532500;151;;;;;;;;;;;;;;
6.450771;21535000;138;;;;;;;;;;;;;;
6.453271;21537500;168;;;;;;;;;;;;;;
6.455771;21540000;311;;;;;;;;;;;;;;
6.458271;21542500;287;;;;;;;;;;;;;;
6.460771;21545000;206;;;;;;;;;;;;;;
6.463271;21547500;144;;;;;;;;;;;;;;
6.465771;21550000;153;21550784;-74.82;80.287;692.859;328.365;66241.516;10760.852;21550344;-941.257;29.547;237.958;-567.687;-16224.125;3881.928
6.468271;21552500;142;;;;;;;;;;;;;;
6.470771;21555000;153;;;;;;;;;;;;;;
6.473271;21557500;158;;;;;;;;;;;;;;
6.475771;21560000;153;;;;;;;;;;;;;;
6.478271;21562500;106;;;;;;;;;;;;;;
6.480771;21565000;280;;;;;;;;;;;;;;
6.483271;21567500;173;;;;;;;;;;;;;;
6.485771;21570000;157;;;;;;;;;;;;;;
6.488271;21572500;125;;;;;;;;;;;;;;
6.490771;21575000;153;;;;;;;;;;;;;;
6.493271;21577500;141;;;;;;;;;;;;;;
6.495771;21580000;170;;;;;;;;;;;;;;
6.498271;21582500;172;21582705;-104.965;76.334;699.044;-1390.803;62230.75;18326.184;21582282;-939.072;26.704;242.225;-1494.365;-14304.731;3618.269
6.500771;21585000;151;;;;;;;;;;;;;;
6.503271;21587500;156;;;;;;;;;;;;;;
6.505771;21590000;125;;;;;;;;;;;;;;
6.508271;21592500;125;;;;;;;;;;;;;;
6.510771;21595000;367;;;;;;;;;;;;;;
6.513271;21597500;233;;;;;;;;;;;;;;
6.515771;21600000;202;;;;;;;;;;;;;;
6.518271;21602500;169;;;;;;;;;;;;;;
6.520771;21605000;152;;;;;;;;;;;;;;
6.523271;21607500;140;;;;;;;;;;;;;;
6.525771;21610000;127;;;;;;;;;;;;;;
6.528271;21612500;142;;;;;;;;;;;;;;
6.530771;21615000;136;21615013;-131.912;91.854;697.666;-534.201;58725.023;29758.312;21614568;-934.904;26.003;249.548;-742.835;-12861.933;3527.48
6.533271;21617500;141;;;;;;;;;;;;;;
6.535771;21620000;153;;;;;;;;;;;;;;
6.538271;21622500;153;;;;;;;;;;;;;;
6.540771;21625000;19;;;;;;;;;;;;;;
6.543271;21627500;255;;;;;;;;;;;;;;
6.545771;21630000;158;;;;;;;;;;;;;;
6.548271;21632500;137;;;;;;;;;;;;;;
6.550771;21635000;138;;;;;;;;;;;;;;
6.553271;21637500;168;;;;;;;;;;;;;;
6.555771;21640000;172;;;;;;;;;;;;;;
6.558271;21642500;154;;;;;;;;;;;;;;
6.560771;21645000;143;;;;;;;;;;;;;;
6.563271;21647500;138;21647109;-154.883;105.006;701.963;-160.116;55696.461;37425.523;21646679;-934.201;23.336;254.395;-427.88;-11353.898;3223.356
6.565771;21650000;126;;;;;;;;;;;;;;
6.568271;21652500;126;;;;;;;;;;;;;;
6.570771;21655000;152;;;;;;;;;;;;;;
6.573271;21657500;352;;;;;;;;;;;;;;
6.575771;21660000;234;;;;;;;;;;;;;;
6.578271;21662500;185;;;;;;;;;;;;;;
6.580771;21665000;159;;;;;;;;;;;;;;
6.583271;21667500;159;;;;;;;;;;;;;;
6.585771;21670000;128;;;;;;;;;;;;;;
6.588271;21672500;127;;;;;;;;;;;;;;
6.590771;21675000;137;;;;;;;;;;;;;;
6.593271;21677500;141;21677768;-171.899;118.373;706.454;1363.828;53447.137;41639.871;21677331;-934.126;23.713;260.146;314.951;-10277.828;2792.251
6.595771;21680000;154;;;;;;;;;;;;;;
6.598271;21682500;155;;;;;;;;;;;;;;
6.600771;21685000;168;;;;;;;;;;;;;;
6.603271;21687500;137;;;;;;;;;;;;;;
6.605771;21690000;301;;;;;;;;;;;;;;
6.608271;21692500;188;;;;;;;;;;;;;;
6.610771;21695000;155;;;;;;;;;;;;;;
6.613271;21697500;170;;;;;;;;;;;;;;
6.615771;21700000;155;;;;;;;;;;;;;;
6.618271;21702500;155;;;;;;;;;;;;;;
6.620771;21705000;169;;;;;;;;;;;;;;
6.623271;21707500;159;;;;;;;;;;;;;;
6.625771;21710000;152;21709873;-190.772;136.287;708.829;3747.386;51908.34;43512.441;21709443;-933.334;26.37;265.402;1571.016;-9840.062;2516.576
6.628271;21712500;124;;;;;;;;;;;;;;
6.630771;21715000;153;;;;;;;;;;;;;;
6.633271;21717500;159;;;;;;;;;;;;;;
6.635771;21720000;153;;;;;;;;;;;;;;
6.638271;21722500;331;;;;;;;;;;;;;;
6.640771;21725000;205;;;;;;;;;;;;;;
6.643271;21727500;174;;;;;;;;;;;;;;
6.645771;21730000;153;;;;;;;;;;;;;;
6.648271;21732500;126;;;;;;;;;;;;;;
6.650771;21735000;154;;;;;;;;;;;;;;
6.653271;21737500;158;;;;;;;;;;;;;;
6.655771;21740000;171;;;;;;;;;;;;;;
6.658271;21742500;172;21741993;-208.214;150.64;708.194;6447.954;51012.609;45009.195;21741554;-931.905;26.644;270.17;2473.34;-9410.184;2227.997
6.660771;21745000;168;;;;;;;;;;;;;;
6.663271;21747500;156;;;;;;;;;;;;;;
6.665771;21750000;127;;;;;;;;;;;;;;
6.668271;21752500;157;;;;;;;;;;;;;;
6.670771;21755000;270;;;;;;;;;;;;;;
6.673271;21757500;207;;;;;;;;;;;;;;
6.675771;21760000;168;;;;;;;;;;;;;;
6.678271;21762500;156;;;;;;;;;;;;;;
6.680771;21765000;170;;;;;;;;;;;;;;
6.683271;21767500;136;;;;;;;;;;;;;;
6.685771;21770000;126;;;;;;;;;;;;;;
6.688271;21772500;124;;;;;;;;21773493;-931.304;27.831;271.021;2719.361;-8662.736;1788.909
6.690771;21775000;136;21773921;-222.655;168.569;705.121;9108.869;50618.852;46249.547;;;;;;;
6.693271;21777500;167;;;;;;;;;;;;;;
6.695771;21780000;170;;;;;;;;;;;;;;
6.698271;21782500;156;;;;;;;;;;;;;;
6.700771;21785000;316;;;;;;;;;;;;;;
6.703271;21787500;201;;;;;;;;;;;;;;
6.705771;21790000;170;;;;;;;;;;;;;;
6.708271;21792500;153;;;;;;;;;;;;;;
6.710771;21795000;155;;;;;;;;;;;;;;
6.713271;21797500;143;;;;;;;;;;;;;;
6.715771;21800000;153;;;;;;;;;;;;;;
6.718271;21802500;172;;;;;;;;;;;;;;
6.720771;21805000;168;21806045;-235.214;182.4;704.61;11359.801;50148.098;47142.195;21805606;-930.001;31.319;272.683;2446.018;-7426.35;1622.026
6.723271;21807500;156;;;;;;;;;;;;;;
6.725771;21810000;125;;;;;;;;;;;;;;
6.728271;21812500;124;;;;;;;;;;;;;;
6.730771;21815000;153;;;;;;;;;;;;;;
6.733271;21817500;298;;;;;;;;;;;;;;
6.735771;21820000;223;;;;;;;;;;;;;;
6.738271;21822500;172;;;;;;;;;;;;;;
6.740771;21825000;153;;;;;;;;;;;;;;
6.743271;21827500;158;;;;;;;;;;;;;;
6.745771;21830000;151;;;;;;;;;;;;;;
6.748271;21832500;124;;;;;;;;;;;;;;
6.750771;21835000;136;;;;;;;;;;;;;;
