timestamp_s;timestamp_us;emg_raw;imu1_timestamp_us;imu1_ax;imu1_ay;imu1_az;imu1_gx;imu1_gy;imu1_gz;imu2_timestamp_us;imu2_ax;imu2_ay;imu2_az;imu2_gx;imu2_gy;imu2_gz
0.0;86930204;;86930204;132.248;-426.39;921.588;463.75;-306.25;-105.0;;;;;;;
0.011541;86941745;;86941745;136.152;-437.126;913.536;717.5;-78.75;131.25;86941313;-148.962;-37.332;993.69;1811.25;280.0;-297.5
0.022746;86952950;;86952950;132.614;-425.17;930.372;805.0;-70.0;61.25;86952516;-152.744;-38.186;991.494;1443.75;315.0;-306.25
0.033936;86964140;;86964140;134.444;-439.688;912.56;-822.5;-262.5;315.0;86963711;-151.402;-39.65;986.004;1636.25;-148.75;-297.5
0.045572;86975776;;86975776;130.662;-438.712;923.662;918.75;-87.5;-8.75;86975342;-153.11;-42.334;990.518;1522.5;-691.25;-288.75
0.056764;86986968;;86986968;137.006;-428.22;916.83;770.0;-358.75;-166.25;86986539;-146.888;-39.406;991.006;1933.75;-665.0;-271.25
0.068365;86998569;;86998569;134.078;-424.804;922.686;630.0;-122.5;96.25;86998135;-148.352;-32.208;994.544;1977.5;-910.0;-341.25
0.079679;87009883;;87009883;137.006;-428.22;912.804;113.75;-105.0;131.25;87009454;-142.374;-33.062;996.618;1426.25;-752.5;-201.25
0.091227;87021431;;87021431;134.566;-429.928;921.344;490.0;8.75;140.0;87020997;-142.496;-36.722;997.716;1417.5;-122.5;-323.75
0.102331;87032535;;87032535;137.86;-431.148;917.074;647.5;-183.75;-17.5;87032106;-147.742;-35.014;994.056;2021.25;166.25;-393.75
0.113793;87043997;;87043997;134.688;-426.024;920.368;848.75;-166.25;-8.75;87043562;-147.498;-35.624;992.226;2003.75;280.0;-367.5
0.124987;87055191;;87055191;136.274;-429.928;918.782;490.0;-131.25;70.0;87054762;-146.888;-37.82;992.47;1750.0;323.75;-446.25
0.136276;87066480;;87066480;132.614;-430.904;920.246;385.0;-105.0;166.25;87066046;-147.01;-39.528;991.372;1863.75;236.25;-411.25
0.147702;87077906;;87077906;134.688;-433.954;919.392;253.75;-175.0;140.0;87077477;-154.452;-39.04;987.346;1820.0;35.0;-323.75
0.159021;87089225;;87089225;132.248;-432.612;922.442;630.0;-175.0;78.75;87088791;-149.694;-38.064;991.616;1723.75;-463.75;-253.75
0.170295;87100499;;87100499;135.908;-431.88;919.026;411.25;-210.0;-61.25;87100070;-149.938;-37.82;992.836;1828.75;-560.0;-280.0
0.181844;87112048;;87112048;134.2;-430.416;919.392;288.75;-166.25;96.25;87111614;-144.082;-39.406;995.032;1627.5;-323.75;-271.25
0.193123;87123327;;87123327;140.422;-428.22;915.488;35.0;-175.0;70.0;87122898;-146.278;-35.624;993.69;1610.0;-262.5;-280.0
0.204411;87134615;;87134615;134.566;-432.002;917.44;402.5;-87.5;157.5;87134180;-145.058;-39.162;996.13;1575.0;-70.0;-236.25
0.21569;87145894;;87145894;137.25;-429.074;919.026;656.25;-201.25;-35.0;87145465;-146.034;-32.452;988.932;2073.75;253.75;-323.75
0.227151;87157355;;87157355;135.176;-428.464;920.734;603.75;-157.5;-8.75;87156921;-144.57;-37.576;993.324;1662.5;358.75;-245.0
0.238344;87168548;;87168548;132.126;-430.172;918.294;280.0;-236.25;105.0;87168119;-148.84;-38.552;999.058;1767.5;472.5;-288.75
0.249803;87180007;;87180007;134.322;-432.246;919.026;595.0;-183.75;26.25;87179572;-146.888;-43.066;998.448;1732.5;848.75;-227.5
0.260998;87191202;;87191202;136.762;-434.198;920.612;936.25;-288.75;-52.5;87190773;-152.988;-39.772;989.42;2187.5;568.75;-183.75
0.272444;87202648;;87202648;135.176;-427.122;922.442;1015.0;-271.25;17.5;87202214;-152.988;-31.598;979.172;1802.5;35.0;-35.0
0.28366;87213864;;87213864;135.908;-427.366;922.442;-148.75;-297.5;262.5;87213435;-147.986;-33.672;991.128;1260.0;-210.0;-26.25
0.295153;87225357;;87225357;136.03;-438.102;916.22;-525.0;-192.5;218.75;87224923;-148.352;-35.746;995.276;1365.0;-428.75;-157.5
0.306627;87236831;;87236831;133.834;-436.516;918.538;875.0;-122.5;26.25;87236402;-150.06;-37.942;996.374;1811.25;-43.75;-288.75
0.317855;87248059;;87248059;135.786;-427.732;917.684;866.25;-183.75;17.5;87247625;-148.962;-40.626;989.176;1968.75;-481.25;-271.25
0.32922;87259424;;87259424;135.786;-427.244;920.49;245.0;-140.0;96.25;87258995;-145.79;-34.282;991.372;1531.25;-691.25;-245.0
0.340596;87270800;;87270800;136.64;-432.978;915.0;52.5;-183.75;52.5;87270366;-145.302;-34.77;998.082;1478.75;-385.0;-262.5
0.351873;87282077;;87282077;135.42;-431.392;919.27;630.0;-87.5;96.25;87281648;-146.766;-36.234;998.448;1680.0;-131.25;-306.25
0.363162;87293366;;87293366;132.98;-429.806;918.538;691.25;-183.75;8.75;87292932;-149.572;-35.258;991.372;1995.0;140.0;-376.25
0.374353;87304557;;87304557;134.322;-426.512;918.66;612.5;-157.5;0.0;87304129;-147.742;-37.576;989.054;1785.0;87.5;-350.0
0.385469;87315673;;87315673;135.542;-429.806;920.368;323.75;-122.5;8.75;87315238;-149.572;-39.284;997.96;1811.25;-96.25;-332.5
0.39666;87326864;;87326864;135.176;-432.49;915.732;936.25;-201.25;-113.75;87326435;-148.596;-29.402;994.666;1776.25;-140.0;-315.0
0.408275;87338479;;87338479;138.47;-425.292;920.49;857.5;-157.5;26.25;87338045;-150.304;-35.258;990.64;1977.5;35.0;-358.75
0.419402;87349606;;87349606;134.566;-431.636;920.49;52.5;-78.75;166.25;87349177;-148.84;-40.626;990.762;1828.75;-175.0;-358.75
0.43069;87360894;;87360894;134.566;-432.978;918.05;87.5;-140.0;96.25;87360460;-149.084;-39.528;991.738;1321.25;-350.0;-288.75
0.441968;87372172;;87372172;134.322;-436.15;916.342;437.5;-166.25;78.75;87371743;-147.742;-36.478;993.934;1837.5;-175.0;-245.0
0.453345;87383549;;87383549;134.932;-431.758;919.514;892.5;-148.75;-35.0;87383115;-146.888;-38.43;993.934;2012.5;-148.75;-341.25
0.464882;87395086;;87395086;135.176;-425.536;922.198;393.75;-122.5;70.0;87394657;-150.304;-35.746;989.664;1662.5;-236.25;-236.25
0.476173;87406377;;87406377;134.322;-432.612;917.806;-61.25;-52.5;175.0;87405943;-148.352;-37.332;990.518;1365.0;-306.25;-227.5
0.487538;87417742;;87417742;133.224;-431.88;916.952;428.75;-201.25;-52.5;87417313;-148.23;-36.234;994.3;1715.0;-411.25;-262.5
0.499055;87429259;;87429259;137.128;-430.782;918.172;1076.25;-210.0;-35.0;87428825;-150.67;-36.844;992.714;2213.75;-280.0;-323.75
0.510624;87440828;;87440828;137.128;-426.756;921.832;787.5;-131.25;17.5;87440400;-148.474;-38.43;991.982;2012.5;-201.25;-306.25
0.521914;87452118;;87452118;137.25;-431.636;918.172;78.75;-192.5;78.75;87451684;-145.302;-37.576;994.056;1601.25;-341.25;-297.5
0.533192;87463396;;87463396;136.152;-433.1;917.928;183.75;-131.25;131.25;87462967;-148.596;-37.942;996.252;1575.0;-87.5;-315.0
0.544634;87474838;;87474838;135.542;-434.686;918.66;848.75;-140.0;26.25;87474403;-148.962;-37.698;994.422;2038.75;105.0;-385.0
0.555847;87486051;;87486051;136.762;-428.586;919.026;910.0;-201.25;-26.25;87485622;-150.914;-36.722;989.298;1828.75;-43.75;-341.25
0.567276;87497480;;87497480;135.664;-432.612;919.88;227.5;-157.5;78.75;87497046;-148.596;-35.746;989.908;1636.25;-78.75;-306.25
0.578501;87508705;;87508705;132.98;-433.71;917.684;218.75;-113.75;122.5;87508276;-147.742;-36.234;994.666;1513.75;-166.25;-253.75
0.590025;87520229;;87520229;136.152;-431.758;918.538;551.25;-166.25;78.75;87519795;-145.424;-36.966;993.08;1881.25;-43.75;-271.25
0.601242;87531446;;87531446;132.98;-430.538;922.32;656.25;-157.5;52.5;87531017;-150.426;-38.674;990.396;1846.25;-105.0;-402.5
0.612617;87542821;;87542821;134.444;-428.342;919.026;245.0;-166.25;52.5;87542387;-148.718;-35.38;990.274;1653.75;-437.5;-288.75
0.623982;87554186;;87554186;133.102;-431.27;919.148;201.25;-96.25;166.25;87553758;-150.67;-36.844;994.666;1531.25;-332.5;-245.0
0.635358;87565562;;87565562;134.322;-432.734;917.684;560.0;-148.75;8.75;87565128;-145.912;-36.844;997.716;1828.75;-306.25;-297.5
0.646635;87576839;;87576839;136.274;-427.976;918.904;656.25;-192.5;26.25;87576410;-145.302;-38.796;992.47;1872.5;-148.75;-332.5
0.658012;87588216;;87588216;137.372;-431.636;920.49;288.75;-131.25;35.0;87587782;-149.816;-36.844;992.47;1688.75;-122.5;-288.75
0.669377;87599581;;87599581;136.274;-430.05;918.538;315.0;-166.25;78.75;87599152;-147.986;-39.406;993.568;1636.25;-236.25;-315.0
0.680753;87610957;;87610957;136.884;-431.636;918.538;472.5;-105.0;35.0;87610523;-148.596;-37.21;992.47;1767.5;-148.75;-358.75
0.692118;87622322;;87622322;138.348;-429.684;921.588;498.75;-131.25;70.0;87621893;-149.206;-36.478;992.226;1855.0;-201.25;-332.5
0.703494;87633698;;87633698;134.81;-430.538;919.148;236.25;-113.75;113.75;87633264;-149.694;-36.722;992.958;1557.5;-385.0;-245.0
0.715009;87645213;;87645213;134.688;-429.684;918.172;218.75;-175.0;96.25;87644784;-147.01;-39.162;994.544;1601.25;-428.75;-332.5
0.726321;87656525;;87656525;133.468;-433.588;918.416;551.25;-140.0;70.0;87656091;-148.108;-35.868;993.69;1820.0;-280.0;-315.0
0.737686;87667890;;87667890;134.81;-427.0;918.416;735.0;-175.0;-17.5;87667461;-147.864;-38.186;992.958;1968.75;-157.5;-271.25
0.7492;87679404;;87679404;136.03;-432.246;918.294;507.5;-166.25;61.25;87678969;-146.522;-37.332;992.958;1750.0;-78.75;-323.75
0.760427;87690631;;87690631;133.102;-429.562;916.586;315.0;-140.0;157.5;87690202;-146.156;-36.478;992.226;1645.0;8.75;-280.0
0.771714;87701918;;87701918;135.664;-430.294;917.806;446.25;-157.5;105.0;87701484;-149.694;-38.674;993.69;1767.5;113.75;-367.5
0.783053;87713257;;87713257;133.346;-430.782;920.246;595.0;-166.25;70.0;87712828;-147.254;-38.918;990.762;1881.25;96.25;-350.0
0.794196;87724400;;87724400;134.81;-432.002;917.928;516.25;-157.5;52.5;87723966;-148.23;-37.454;988.932;1820.0;-78.75;-306.25
0.805475;87735679;;87735679;135.42;-430.05;918.782;446.25;-183.75;96.25;87735250;-150.792;-36.478;990.64;1855.0;-227.5;-323.75
0.81685;87747054;;87747054;134.566;-432.978;918.904;367.5;-113.75;52.5;87746620;-147.01;-38.552;992.836;1688.75;-245.0;-341.25
0.828215;87758419;;87758419;134.444;-430.538;921.954;507.5;-140.0;26.25;87757991;-152.5;-38.796;990.762;1767.5;-315.0;-280.0
0.839591;87769795;;87769795;136.64;-430.538;918.416;437.5;-148.75;61.25;87769361;-150.67;-38.43;993.568;1680.0;-262.5;-315.0
0.850956;87781160;;87781160;135.542;-430.05;918.416;297.5;-183.75;70.0;87780731;-149.328;-35.136;993.812;1688.75;-341.25;-288.75
0.862332;87792536;;87792536;136.64;-431.026;918.538;367.5;-192.5;105.0;87792102;-149.694;-36.478;991.982;1820.0;-367.5;-358.75
0.873846;87804050;;87804050;137.494;-431.88;917.806;542.5;-175.0;-61.25;87803621;-147.742;-36.966;991.982;1811.25;-271.25;-323.75
0.88533;87815534;;87815534;136.03;-428.22;918.172;420.0;-140.0;43.75;87815100;-147.742;-35.014;992.226;1732.5;-323.75;-288.75
0.896611;87826815;;87826815;135.908;-430.904;918.904;437.5;-157.5;87.5;87826387;-148.84;-35.868;993.934;1802.5;-306.25;-341.25
0.907987;87838191;;87838191;135.054;-432.734;919.026;420.0;-210.0;87.5;87837757;-148.596;-40.016;992.836;1723.75;-201.25;-323.75
0.919352;87849556;;87849556;137.006;-429.806;918.05;446.25;-166.25;52.5;87849127;-145.546;-37.21;994.056;1750.0;-183.75;-358.75
0.930728;87860932;;87860932;132.98;-430.05;918.66;560.0;-166.25;-17.5;87860498;-151.646;-35.136;992.592;1811.25;-271.25;-323.75
0.942239;87872443;;87872443;135.054;-431.148;919.27;455.0;-157.5;87.5;87872014;-149.45;-38.308;990.274;1758.75;-297.5;-376.25
0.953556;87883760;;87883760;134.932;-432.368;920.49;420.0;-175.0;96.25;87883325;-148.108;-38.552;992.226;1802.5;-420.0;-236.25
0.96492;87895124;;87895124;133.224;-432.612;919.148;376.25;-157.5;35.0;87894696;-147.864;-36.966;990.762;1793.75;-481.25;-315.0
0.976296;87906500;;87906500;135.298;-431.148;920.002;385.0;-166.25;43.75;87906066;-148.596;-35.38;991.616;1758.75;-446.25;-332.5
0.987661;87917865;;87917865;131.272;-431.758;918.782;376.25;-166.25;26.25;87917436;-146.644;-38.918;993.202;1750.0;-516.25;-245.0
0.999037;87929241;;87929241;138.348;-433.588;919.27;376.25;-166.25;70.0;87928807;-149.328;-37.454;991.86;1583.75;-402.5;-262.5
1.010402;87940606;;87940606;133.468;-431.514;919.88;411.25;-140.0;52.5;87940177;-147.376;-38.308;992.714;1680.0;-341.25;-297.5
1.021778;87951982;;87951982;137.006;-429.806;920.124;385.0;-166.25;148.75;87951548;-146.766;-38.918;991.982;1750.0;-376.25;-271.25
1.033318;87963522;;87963522;135.176;-432.368;918.904;376.25;-140.0;166.25;87963093;-147.376;-39.894;992.592;1662.5;-376.25;-288.75
1.044759;87974963;;87974963;135.298;-433.466;918.904;227.5;-148.75;26.25;87974529;-149.694;-37.942;991.372;1618.75;-551.25;-245.0
1.056057;87986261;;87986261;133.712;-433.71;920.734;323.75;-175.0;52.5;87985832;-148.718;-37.576;991.982;1627.5;-656.25;-245.0
1.067433;87997637;;87997637;137.25;-436.516;924.15;402.5;-175.0;8.75;87997203;-150.67;-38.064;990.152;1776.25;-813.75;-245.0
1.07871;88008914;;88008914;136.396;-432.246;918.05;253.75;-227.5;-35.0;88008485;-146.766;-38.308;992.592;1513.75;-910.0;-262.5
1.090246;88020450;;88020450;136.762;-433.466;921.222;35.0;-70.0;166.25;88020016;-146.888;-37.698;990.762;1435.0;-822.5;-315.0
1.101451;88031655;;88031655;134.2;-431.88;921.588;43.75;-113.75;122.5;88031226;-148.718;-35.502;996.496;1907.5;-402.5;-446.25
1.112828;88043032;;88043032;138.836;-431.148;915.488;157.5;-262.5;8.75;88042598;-146.888;-35.258;997.228;2030.0;-411.25;-525.0
1.124105;88054309;;88054309;134.322;-428.342;921.222;446.25;-52.5;236.25;88053880;-145.79;-37.698;989.542;1592.5;-542.5;-350.0
1.135482;88065686;;88065686;133.59;-432.124;919.148;-87.5;-210.0;61.25;88065251;-150.914;-38.552;991.25;1592.5;-586.25;-315.0
1.146847;88077051;;88077051;132.736;-433.344;922.442;341.25;-140.0;87.5;88076622;-149.816;-38.552;996.252;1522.5;-875.0;-306.25
1.158222;88088426;;88088426;130.662;-431.88;919.27;-96.25;-236.25;70.0;88087992;-151.768;-36.234;991.006;1706.25;-1190.0;-367.5
1.169674;88099878;;88099878;129.808;-429.44;917.074;253.75;-26.25;253.75;88099449;-151.28;-40.626;992.104;1785.0;-1505.0;-428.75
1.181137;88111341;;88111341;143.35;-439.444;923.418;157.5;-70.0;350.0;88110907;-145.546;-44.53;994.788;1443.75;-1820.0;-393.75
1.192589;88122793;;88122793;129.32;-428.464;917.318;437.5;-183.75;52.5;88122364;-147.62;-33.428;989.054;2108.75;-1960.0;-472.5
1.204051;88134255;;88134255;142.618;-429.196;907.68;-61.25;-358.75;8.75;88133821;-141.52;-43.92;1001.01;1347.5;-1785.0;-280.0
1.215502;88145706;;88145706;129.686;-427.122;933.056;997.5;-96.25;-26.25;88145277;-146.888;-30.866;997.838;2038.75;-1400.0;-542.5
1.226965;88157169;;88157169;142.618;-423.95;893.162;-778.75;-673.75;-262.5;88156735;-138.714;-36.6;995.032;1373.75;-1382.5;-306.25
1.238767;88168971;;88168971;137.25;-429.074;918.416;306.25;533.75;770.0;88168542;-139.08;-37.576;993.202;1680.0;-402.5;-472.5
1.250054;88180258;;88180258;144.936;-437.858;919.636;1102.5;-463.75;-306.25;88179823;-142.374;-40.016;991.982;1767.5;-8.75;-455.0
1.26158;88191784;;88191784;136.518;-412.97;920.246;1793.75;-323.75;-245.0;88191355;-142.862;-33.306;991.494;2143.75;-26.25;-323.75
1.273164;88203368;;88203368;134.81;-426.756;911.34;-883.75;-367.5;140.0;88202934;-150.182;-34.77;992.226;1601.25;70.0;-385.0
1.284494;88214698;;88214698;134.322;-443.47;915.366;253.75;271.25;280.0;88214269;-149.694;-40.992;995.398;1321.25;385.0;-350.0
1.295709;88225913;;88225913;135.542;-430.172;919.148;848.75;-428.75;-148.75;88225479;-151.768;-46.36;992.104;2082.5;288.75;-437.5
1.307244;88237448;;88237448;134.078;-430.05;916.708;997.5;-218.75;-8.75;88237019;-145.546;-40.382;988.81;2397.5;35.0;-428.75
1.318363;88248567;;88248567;135.298;-429.684;922.442;428.75;-140.0;43.75;88248132;-147.132;-38.064;992.714;1785.0;17.5;-472.5
1.329554;88259758;;88259758;136.762;-435.662;917.928;393.75;-26.25;131.25;88259329;-143.472;-38.308;996.74;1417.5;-463.75;-332.5
1.34093;88271134;;88271134;134.932;-435.418;920.856;192.5;-166.25;17.5;88270700;-145.302;-38.43;993.324;1697.5;-297.5;-297.5
1.352295;88282499;;88282499;134.322;-435.662;917.806;638.75;-227.5;17.5;88282070;-146.644;-35.136;987.346;2073.75;-52.5;-385.0
1.363584;88293788;;88293788;135.786;-428.22;917.44;857.5;-192.5;-201.25;88293354;-144.082;-38.552;992.47;1662.5;-560.0;-245.0
1.375194;88305398;;88305398;133.956;-427.976;919.514;35.0;-70.0;183.75;88304970;-144.082;-39.528;994.056;1470.0;-140.0;-262.5
1.38641;88316614;;88316614;133.59;-435.906;918.538;201.25;-113.75;183.75;88316180;-147.254;-36.722;993.446;1592.5;-140.0;-262.5
1.397942;88328146;;88328146;133.59;-429.684;917.928;857.5;-218.75;-61.25;88327718;-146.766;-39.162;989.908;1662.5;-507.5;-227.5
1.409379;88339583;;88339583;133.712;-428.952;919.148;603.75;-227.5;96.25;88339148;-143.106;-38.796;991.128;1898.75;-393.75;-297.5
1.420691;88350895;;88350895;134.566;-433.344;921.588;227.5;-236.25;35.0;88350466;-146.278;-35.868;993.446;1741.25;-341.25;-280.0
1.432067;88362271;;88362271;136.396;-429.928;916.342;568.75;-113.75;35.0;88361836;-142.496;-35.014;996.74;1697.5;-568.75;-297.5
1.443432;88373636;;88373636;135.054;-432.612;922.076;551.25;-70.0;52.5;88373207;-143.594;-34.404;993.69;1881.25;-236.25;-297.5
1.454719;88384923;;88384923;135.908;-433.71;919.514;306.25;-201.25;43.75;88384489;-141.886;-39.65;992.226;1890.0;-166.25;-341.25
1.466085;88396289;;88396289;134.322;-429.196;919.392;280.0;-113.75;70.0;88395861;-143.228;-38.308;990.64;1487.5;-411.25;-288.75
1.477461;88407665;;88407665;137.738;-433.832;916.098;288.75;-201.25;17.5;88407231;-144.814;-38.186;998.082;1548.75;-288.75;-271.25
1.488826;88419030;;88419030;134.444;-429.806;921.954;630.0;-122.5;-8.75;88418602;-147.376;-33.184;996.984;1828.75;-17.5;-341.25
1.500115;88430319;;88430319;138.104;-432.612;916.952;393.75;-183.75;26.25;88429885;-146.278;-36.234;992.958;1802.5;-105.0;-297.5
1.51148;88441684;;88441684;132.126;-429.806;920.124;420.0;-52.5;61.25;88441256;-145.912;-38.308;991.86;1583.75;-148.75;-297.5
1.522768;88452972;;88452972;132.126;-429.684;919.636;367.5;-148.75;8.75;88452538;-147.376;-36.478;994.788;1671.25;-96.25;-376.25
1.533959;88464163;;88464163;134.688;-430.416;919.514;595.0;-201.25;96.25;88463735;-145.302;-38.064;991.86;1855.0;-262.5;-306.25
1.545337;88475541;;88475541;137.616;-427.122;918.66;717.5;-183.75;0.0;88475106;-145.912;-35.624;992.836;1890.0;-288.75;-323.75
1.556614;88486818;;88486818;134.81;-429.928;918.05;420.0;-105.0;78.75;88486389;-144.448;-36.844;992.836;1793.75;-192.5;-411.25
1.56799;88498194;;88498194;136.152;-434.198;918.416;236.25;-113.75;157.5;88497760;-147.376;-36.234;990.03;1732.5;-227.5;-367.5
1.579495;88509699;;88509699;137.25;-433.222;919.514;446.25;-192.5;17.5;88509270;-146.644;-40.016;992.348;1855.0;-350.0;-315.0
1.590818;88521022;;88521022;135.176;-433.588;918.294;717.5;-201.25;-43.75;88520588;-142.862;-40.992;991.006;1898.75;-350.0;-323.75
1.602332;88532536;;88532536;136.884;-429.196;917.44;245.0;-157.5;105.0;88532107;-146.4;-35.868;991.86;1802.5;-288.75;-358.75
1.613812;88544016;;88544016;134.81;-429.806;916.708;183.75;-96.25;183.75;88543582;-144.448;-35.868;991.616;1487.5;-288.75;-288.75
1.625098;88555302;;88555302;137.006;-429.196;912.194;358.75;-140.0;70.0;88554873;-143.35;-36.966;992.836;1610.0;-183.75;-280.0
1.636473;88566677;;88566677;137.738;-433.466;934.886;1172.5;-17.5;113.75;88566243;-145.058;-36.6;999.18;2126.25;113.75;-411.25
1.647902;88578106;;88578106;136.884;-421.998;917.684;551.25;-516.25;-227.5;88577678;-146.156;-31.476;996.374;2170.0;122.5;-350.0
1.659374;88589578;;88589578;136.152;-426.512;909.266;-490.0;-17.5;271.25;88589144;-143.96;-38.796;987.468;1050.0;-113.75;-236.25
1.670804;88601008;;88601008;129.198;-445.422;920.002;-525.0;236.25;586.25;88600579;-150.182;-43.432;986.37;1268.75;43.75;-350.0
1.682166;88612370;;88612370;135.054;-435.052;925.98;1776.25;-402.5;-376.25;88611936;-147.132;-43.066;988.078;1960.0;-428.75;-262.5
1.693724;88623928;;88623928;136.884;-422.242;915.732;358.75;-428.75;-166.25;88623499;-145.546;-35.38;993.08;2038.75;-1041.25;-253.75
1.705383;88635587;;88635587;136.884;-435.052;913.658;-621.25;0.0;376.25;88635153;-149.084;-33.428;995.398;962.5;-945.0;-131.25
1.716493;88646697;;88646697;136.518;-433.344;924.638;140.0;78.75;253.75;88646269;-143.106;-37.454;997.472;1050.0;-1006.25;-192.5
1.727869;88658073;;88658073;136.518;-425.902;911.828;577.5;-280.0;-105.0;88657639;-140.056;-36.356;994.3;1995.0;-875.0;-280.0
1.739498;88669702;;88669702;138.348;-426.756;917.318;1023.75;-218.75;17.5;88669274;-140.91;-33.062;996.008;2345.0;192.5;-420.0
1.750856;88681060;;88681060;136.396;-428.464;922.32;1093.75;-113.75;8.75;88680626;-144.448;-36.966;994.788;1715.0;192.5;-402.5
1.762063;88692267;;88692267;135.298;-425.048;916.952;236.25;-148.75;113.75;88691838;-146.034;-38.186;993.08;1391.25;26.25;-376.25
1.773422;88703626;;88703626;133.834;-444.812;920.856;-367.5;-96.25;280.0;88703191;-146.156;-40.626;992.348;1557.5;245.0;-420.0
1.784804;88715008;;88715008;130.174;-439.81;916.098;953.75;-183.75;-122.5;88714579;-149.084;-42.944;990.762;1977.5;-323.75;-332.5
1.79634;88726544;;88726544;137.738;-427.976;919.392;1286.25;-245.0;-157.5;88726110;-141.764;-41.114;990.396;2047.5;-778.75;-236.25
1.807949;88738153;;88738153;136.64;-436.394;919.636;-227.5;-253.75;183.75;88737724;-145.546;-34.77;994.788;1741.25;-516.25;-288.75
1.819519;88749723;;88749723;137.372;-432.368;915.854;350.0;-61.25;78.75;88749288;-143.716;-35.136;996.252;1365.0;-761.25;-218.75
1.830718;88760922;;88760922;134.688;-431.026;917.684;297.5;-87.5;122.5;88760493;-145.302;-36.966;997.106;1391.25;-560.0;-218.75
1.842095;88772299;;88772299;138.348;-433.344;917.928;306.25;-157.5;8.75;88771865;-143.472;-38.308;990.03;1828.75;-183.75;-358.75
1.853372;88783576;;88783576;137.25;-426.878;916.708;385.0;-201.25;-8.75;88783147;-143.96;-38.674;992.592;1898.75;-140.0;-385.0
1.864749;88794953;;88794953;135.786;-430.904;915.366;568.75;-87.5;70.0;88794519;-142.13;-34.892;995.032;1627.5;-306.25;-306.25
1.876026;88806230;;88806230;135.664;-427.61;922.198;525.0;-105.0;87.5;88805801;-144.692;-39.04;995.52;1776.25;-192.5;-350.0
1.887403;88817607;;88817607;131.15;-434.686;916.464;245.0;-201.25;17.5;88817173;-144.326;-38.064;992.47;1916.25;-175.0;-341.25
1.898768;88828972;;88828972;136.518;-432.368;920.368;787.5;-148.75;-17.5;88828543;-143.96;-38.43;991.616;1785.0;-455.0;-288.75
1.910295;88840499;;88840499;135.908;-433.344;917.074;245.0;-227.5;43.75;88840064;-147.132;-34.526;990.396;1741.25;-271.25;-358.75
1.921595;88851799;;88851799;139.08;-431.88;920.246;446.25;-148.75;78.75;88851371;-142.74;-39.65;993.324;1697.5;-280.0;-280.0
1.932971;88863175;;88863175;136.03;-433.71;914.634;148.75;-175.0;8.75;88862741;-142.13;-40.87;992.958;1531.25;-157.5;-332.5
1.944248;88874452;;88874452;131.76;-433.1;923.296;463.75;8.75;201.25;88874024;-145.79;-35.136;993.812;1592.5;-8.75;-385.0
1.955276;88885480;;88885480;135.664;-431.514;918.904;271.25;-227.5;-61.25;88885046;-145.912;-37.698;991.494;1610.0;-262.5;-218.75
1.966806;88897010;;88897010;137.006;-430.172;916.342;647.5;-183.75;-52.5;88896581;-142.984;-36.966;993.69;1767.5;-175.0;-367.5
1.978247;88908451;;88908451;134.932;-429.928;918.416;726.25;-183.75;-26.25;88908017;-147.498;-38.796;993.08;1872.5;-288.75;-393.75
1.98972;88919924;;88919924;137.006;-426.512;918.172;516.25;-183.75;61.25;88919496;-143.716;-37.576;993.08;1758.75;-332.5;-315.0
2.00102;88931224;;88931224;135.664;-429.44;915.244;218.75;-157.5;105.0;88930790;-142.496;-35.38;993.324;1828.75;-148.75;-306.25
2.012553;88942757;;88942757;135.908;-433.344;919.636;603.75;-131.25;52.5;88942328;-142.252;-38.918;995.764;1837.5;-157.5;-358.75
2.023848;88954052;;88954052;137.128;-429.562;919.026;507.5;-183.75;-43.75;88953618;-145.058;-37.698;993.446;2012.5;-61.25;-411.25
2.035285;88965489;;88965489;137.86;-435.052;918.05;262.5;-122.5;87.5;88965060;-142.008;-40.016;991.128;1846.25;-8.75;-358.75
2.046415;88976619;;88976619;135.786;-432.856;920.734;463.75;-122.5;61.25;88976185;-147.132;-38.552;992.348;1688.75;-96.25;-376.25
2.057693;88987897;;88987897;137.494;-433.832;918.66;542.5;-175.0;78.75;88987468;-145.18;-42.09;993.324;1802.5;-96.25;-315.0
2.068982;88999186;;88999186;133.468;-433.1;918.66;385.0;-236.25;61.25;88998752;-146.4;-40.504;991.86;1732.5;-131.25;-306.25
2.080347;89010551;;89010551;135.786;-430.05;917.318;288.75;-131.25;52.5;89010122;-146.888;-37.698;992.714;1575.0;-332.5;-245.0
2.091723;89021927;;89021927;135.176;-431.026;920.124;385.0;-96.25;52.5;89021493;-145.302;-39.65;991.494;1505.0;-437.5;-271.25
2.103;89033204;;89033204;135.176;-430.416;916.83;420.0;-201.25;52.5;89032775;-142.618;-38.674;992.47;1741.25;-551.25;-262.5
2.114377;89044581;;89044581;133.59;-427.976;916.708;586.25;-148.75;26.25;89044147;-144.814;-34.648;996.984;1933.75;-586.25;-332.5
2.125742;89055946;;89055946;134.81;-430.416;918.538;586.25;-131.25;61.25;89055517;-143.228;-35.624;994.422;1863.75;-428.75;-306.25
2.137118;89067322;;89067322;139.812;-430.66;919.514;665.0;-140.0;61.25;89066887;-140.422;-38.308;994.178;2003.75;-245.0;-332.5
2.148483;89078687;;89078687;138.592;-429.684;919.514;647.5;-148.75;78.75;89078258;-140.788;-37.21;993.202;2030.0;70.0;-472.5
2.159685;89089889;;89089889;136.884;-432.246;915.854;341.25;-166.25;43.75;89089455;-142.496;-36.722;993.324;1925.0;253.75;-428.75
2.170963;89101167;;89101167;136.03;-433.222;915.244;218.75;-140.0;87.5;89100738;-145.058;-36.722;992.836;1575.0;507.5;-323.75
2.182252;89112456;;89112456;133.102;-437.004;918.294;428.75;-35.0;105.0;89112022;-145.912;-42.334;991.738;1706.25;673.75;-393.75
2.19353;89123734;;89123734;132.98;-436.028;921.588;682.5;-175.0;-78.75;89123305;-147.132;-38.186;988.322;1750.0;542.5;-358.75
2.204986;89135190;;89135190;135.298;-430.782;921.466;735.0;-122.5;0.0;89134756;-147.986;-38.552;990.762;1995.0;70.0;-323.75
2.21601;89146214;;89146214;134.932;-431.636;917.806;297.5;-166.25;43.75;89145785;-149.694;-38.064;990.762;1750.0;-297.5;-253.75
2.227386;89157590;;89157590;136.03;-428.83;917.928;446.25;-105.0;105.0;89157156;-143.35;-38.43;994.178;1653.75;-577.5;-306.25
2.238895;89169099;;89169099;134.932;-430.782;919.514;525.0;-148.75;17.5;89168670;-146.278;-38.796;994.544;1907.5;-516.25;-323.75
2.250214;89180418;;89180418;137.738;-430.904;917.806;892.5;-210.0;-35.0;89179984;-142.984;-35.99;995.154;1907.5;-385.0;-376.25
2.261723;89191927;;89191927;137.738;-429.44;919.026;507.5;-210.0;61.25;89191499;-143.228;-37.82;995.764;1907.5;-148.75;-323.75
2.273042;89203246;;89203246;138.958;-431.514;916.22;350.0;-105.0;78.75;89202811;-143.838;-36.966;994.91;1557.5;131.25;-332.5
2.28432;89214524;;89214524;137.616;-434.076;919.27;402.5;-113.75;113.75;89214095;-145.058;-39.04;993.324;1741.25;341.25;-271.25
2.295773;89225977;;89225977;135.786;-433.344;917.562;612.5;-236.25;-26.25;89225542;-144.204;-39.772;992.47;1811.25;297.5;-350.0
2.307168;89237372;;89237372;132.492;-429.44;921.71;673.75;-183.75;-52.5;89236943;-145.424;-39.528;990.274;1802.5;280.0;-262.5
2.318509;89248713;;89248713;133.468;-432.612;917.928;490.0;-245.0;35.0;89248279;-147.62;-40.382;991.128;1767.5;280.0;-236.25
2.329715;89259919;;89259919;134.688;-432.002;919.636;752.5;-148.75;8.75;89259490;-143.228;-40.016;992.958;1820.0;-8.75;-218.75
2.340829;89271033;;89271033;133.956;-432.978;919.514;463.75;-210.0;-8.75;89270599;-147.742;-36.356;991.738;1715.0;-140.0;-218.75
2.352195;89282399;;89282399;137.006;-430.294;920.734;437.5;-157.5;26.25;89281970;-147.742;-37.454;991.982;1811.25;-271.25;-332.5
2.363571;89293775;;89293775;135.908;-431.026;920.246;402.5;-157.5;87.5;89293340;-142.74;-36.722;990.64;1732.5;-516.25;-323.75
2.374936;89305140;;89305140;137.86;-432.734;917.318;455.0;-122.5;0.0;89304711;-145.424;-35.868;994.422;1706.25;-428.75;-280.0
2.386224;89316428;;89316428;137.128;-430.294;918.66;481.25;-140.0;105.0;89315993;-142.496;-39.284;994.056;1741.25;-288.75;-315.0
2.397733;89327937;;89327937;136.274;-429.562;917.684;437.5;-175.0;122.5;89327508;-144.204;-38.308;994.544;1723.75;-341.25;-315.0
2.409209;89339413;;89339413;133.224;-429.928;917.928;385.0;-157.5;105.0;89338979;-144.448;-36.844;992.836;1776.25;-253.75;-297.5
2.420682;89350886;;89350886;134.81;-431.514;918.904;323.75;-148.75;70.0;89350457;-144.082;-38.43;994.544;1723.75;-236.25;-271.25
2.431966;89362170;;89362170;138.348;-432.246;919.392;542.5;-183.75;26.25;89361736;-144.57;-38.552;994.788;1636.25;-227.5;-245.0
2.443332;89373536;;89373536;134.322;-430.538;919.026;542.5;-175.0;78.75;89373107;-144.57;-35.258;993.202;1898.75;-183.75;-245.0
2.454708;89384912;;89384912;136.396;-428.098;918.904;472.5;-70.0;8.75;89384477;-146.522;-40.992;993.446;1732.5;-218.75;-323.75
2.465896;89396100;;89396100;137.494;-434.32;918.294;411.25;-105.0;87.5;89395672;-144.204;-38.552;994.178;1767.5;-245.0;-271.25
2.477275;89407479;;89407479;137.616;-431.27;920.002;647.5;-157.5;17.5;89407045;-144.814;-37.21;994.178;1820.0;-236.25;-376.25
2.48864;89418844;;89418844;138.104;-429.196;920.002;647.5;-148.75;-17.5;89418415;-145.546;-37.698;990.64;1916.25;-210.0;-315.0
2.500175;89430379;;89430379;134.444;-428.83;918.782;525.0;-157.5;43.75;89429945;-143.716;-38.186;994.056;1898.75;-175.0;-315.0
2.511467;89441671;;89441671;136.518;-430.66;918.538;393.75;-148.75;105.0;89441242;-148.352;-37.454;994.788;1662.5;-43.75;-306.25
2.522903;89453107;;89453107;136.64;-431.636;919.88;385.0;-113.75;52.5;89452673;-143.472;-38.064;991.738;1750.0;-70.0;-297.5
2.534121;89464325;;89464325;135.054;-432.978;915.61;297.5;-157.5;61.25;89463896;-144.692;-39.162;990.884;1653.75;-201.25;-306.25
2.545497;89475701;;89475701;135.42;-430.66;918.416;498.75;-131.25;61.25;89475267;-144.814;-36.722;995.276;1776.25;-323.75;-323.75
2.556862;89487066;;89487066;134.444;-430.538;917.928;577.5;-210.0;-26.25;89486637;-145.058;-35.624;995.032;1802.5;-271.25;-315.0
2.56839;89498594;;89498594;136.518;-428.83;918.416;411.25;-78.75;122.5;89498160;-146.034;-35.99;994.056;1811.25;-245.0;-280.0
2.57969;89509894;;89509894;133.224;-430.904;919.392;297.5;-105.0;96.25;89509465;-146.156;-38.918;991.25;1750.0;-218.75;-341.25
2.591065;89521269;;89521269;133.59;-429.806;918.904;516.25;-131.25;52.5;89520835;-146.888;-37.942;993.324;1820.0;-227.5;-315.0
2.60243;89532634;;89532634;135.176;-431.27;918.782;542.5;-166.25;52.5;89532206;-147.132;-35.38;991.86;1855.0;-218.75;-341.25
2.613806;89544010;;89544010;133.956;-428.708;919.27;568.75;-175.0;43.75;89543576;-143.106;-40.138;992.47;1828.75;-315.0;-367.5
2.625171;89555375;;89555375;139.934;-432.612;918.172;358.75;-166.25;52.5;89554946;-144.082;-38.552;992.958;1627.5;-253.75;-341.25
2.636547;89566751;;89566751;136.762;-432.368;916.464;376.25;-148.75;17.5;89566317;-144.57;-38.674;994.91;1715.0;-262.5;-323.75
2.647912;89578116;;89578116;135.908;-430.782;916.708;481.25;-183.75;52.5;89577687;-146.034;-37.942;994.178;1820.0;-271.25;-288.75
2.659288;89589492;;89589492;137.128;-430.294;919.88;472.5;-148.75;70.0;89589057;-145.79;-35.014;993.69;1697.5;-192.5;-315.0
2.670653;89600857;;89600857;133.712;-432.734;917.318;446.25;-183.75;43.75;89600428;-143.106;-34.282;993.324;1653.75;-192.5;-358.75
2.682028;89612232;;89612232;135.176;-432.612;917.806;315.0;-166.25;131.25;89611798;-143.716;-36.356;995.886;1723.75;-122.5;-288.75
2.69355;89623754;;89623754;131.394;-433.222;918.05;463.75;-175.0;52.5;89623325;-145.424;-37.576;993.324;1723.75;-113.75;-297.5
2.704856;89635060;;89635060;133.712;-429.806;919.148;542.5;-131.25;-17.5;89634626;-146.278;-38.308;990.396;1750.0;-113.75;-385.0
2.716386;89646590;;89646590;134.322;-433.344;919.026;411.25;-157.5;113.75;89646161;-148.474;-40.504;992.226;1767.5;-148.75;-350.0
2.727824;89658028;;89658028;134.932;-433.1;920.124;402.5;-148.75;0.0;89657594;-146.766;-36.356;992.836;1785.0;-350.0;-315.0
2.739048;89669252;;89669252;135.664;-430.66;918.294;498.75;-148.75;0.0;89668823;-146.156;-37.454;992.836;1706.25;-402.5;-288.75
2.750336;89680540;;89680540;137.372;-432.978;918.782;455.0;-148.75;131.25;89680106;-147.132;-36.478;992.47;1758.75;-420.0;-341.25
2.761862;89692066;;89692066;135.42;-431.758;919.636;367.5;-131.25;52.5;89691637;-145.546;-37.332;993.08;1802.5;-472.5;-271.25
2.773165;89703369;;89703369;136.274;-430.172;920.734;455.0;-166.25;35.0;89702935;-145.424;-39.162;994.788;1758.75;-490.0;-271.25
2.78453;89714734;;89714734;135.176;-432.002;920.612;428.75;-148.75;140.0;89714305;-143.838;-40.87;993.812;1767.5;-367.5;-323.75
2.796078;89726282;;89726282;137.494;-432.734;920.124;507.5;-148.75;96.25;89725848;-144.936;-35.502;995.032;1820.0;-332.5;-245.0
2.807358;89737562;;89737562;134.81;-430.66;918.904;411.25;-183.75;105.0;89737133;-143.228;-35.502;993.446;1802.5;-148.75;-315.0
2.818871;89749075;;89749075;136.762;-432.734;917.562;402.5;-122.5;96.25;89748641;-146.644;-38.918;994.422;1837.5;43.75;-315.0
2.830012;89760216;;89760216;134.566;-429.44;919.392;446.25;-122.5;87.5;89759787;-143.838;-36.112;993.08;1811.25;-87.5;-332.5
2.841301;89771505;;89771505;133.102;-430.538;920.246;542.5;-148.75;43.75;89771071;-144.57;-36.356;994.544;1855.0;35.0;-315.0
2.852492;89782696;;89782696;134.688;-429.562;919.392;472.5;-122.5;131.25;89782267;-145.18;-39.406;993.324;1750.0;17.5;-332.5
2.863872;89794076;;89794076;135.42;-431.88;920.124;472.5;-175.0;26.25;89793642;-144.082;-38.552;993.812;1890.0;-297.5;-306.25
2.875146;89805350;;89805350;136.152;-430.05;920.124;542.5;-175.0;35.0;89804921;-147.132;-37.332;994.178;1890.0;-218.75;-245.0
2.886522;89816726;;89816726;134.566;-430.66;920.246;455.0;-166.25;61.25;89816292;-145.546;-37.698;994.788;1855.0;-253.75;-350.0
2.897887;89828091;;89828091;137.494;-432.612;919.27;437.5;-140.0;113.75;89827662;-146.034;-35.502;992.348;1811.25;-367.5;-358.75
2.90944;89839644;;89839644;135.42;-431.514;917.928;367.5;-166.25;61.25;89839203;-146.522;-36.844;992.47;1750.0;-428.75;-376.25
2.920714;89850918;;89850918;137.128;-433.832;918.904;358.75;-140.0;87.5;89850490;-144.326;-39.528;992.226;1767.5;-315.0;-297.5
2.93209;89862294;;89862294;135.054;-431.148;919.514;446.25;-113.75;61.25;89861860;-142.862;-40.504;993.934;1680.0;-446.25;-297.5
2.943455;89873659;;89873659;134.444;-431.514;919.148;437.5;-157.5;43.75;89873230;-144.936;-38.43;993.324;1723.75;-288.75;-253.75
2.954831;89885035;;89885035;134.688;-429.928;916.342;350.0;-148.75;87.5;89884601;-145.302;-38.674;994.666;1732.5;-288.75;-280.0
2.966196;89896400;;89896400;136.64;-431.514;918.172;393.75;-192.5;87.5;89895971;-142.74;-39.284;994.544;1802.5;-210.0;-253.75
2.977572;89907776;;89907776;134.566;-433.954;918.294;446.25;-148.75;70.0;89907342;-144.814;-37.454;995.032;1697.5;-35.0;-306.25
2.98885;89919054;;89919054;134.566;-429.44;921.222;586.25;-192.5;26.25;89918625;-145.058;-39.04;994.178;1785.0;-52.5;-323.75
3.000139;89930343;;89930343;135.176;-432.002;918.904;446.25;-148.75;52.5;89929909;-145.546;-37.942;993.08;1793.75;-122.5;-332.5
3.011504;89941708;;89941708;135.664;-429.806;919.758;437.5;-175.0;70.0;89941279;-143.594;-38.308;993.324;1715.0;-78.75;-315.0
3.022793;89952997;;89952997;135.298;-432.002;917.562;402.5;-227.5;43.75;89952563;-146.644;-37.942;993.08;1811.25;-148.75;-350.0
3.034158;89964362;;89964362;135.786;-431.514;920.002;577.5;-157.5;43.75;89963933;-142.618;-35.624;993.446;1872.5;-175.0;-402.5
3.045534;89975738;;89975738;137.128;-430.05;917.196;358.75;-148.75;-8.75;89975303;-143.838;-37.82;994.3;1828.75;-183.75;-323.75
3.056899;89987103;;89987103;136.518;-433.954;919.392;498.75;-157.5;113.75;89986674;-146.278;-39.406;991.738;1671.25;-192.5;-315.0
3.068435;89998639;;89998639;136.274;-431.026;916.098;376.25;-175.0;87.5;89998205;-144.082;-35.624;991.616;1802.5;-78.75;-367.5
3.07964;90009844;;90009844;132.98;-429.196;920.856;490.0;-131.25;87.5;90009415;-144.082;-39.772;993.08;1802.5;-70.0;-341.25
3.090929;90021133;;90021133;134.566;-430.66;918.782;297.5;-148.75;61.25;90020698;-146.888;-37.332;993.446;1802.5;-96.25;-262.5
3.102207;90032411;;90032411;135.42;-433.954;918.294;691.25;-105.0;61.25;90031982;-143.228;-38.918;992.226;1855.0;-157.5;-306.25
3.113582;90043786;;90043786;134.566;-432.978;916.952;507.5;-175.0;8.75;90043352;-147.132;-40.138;994.666;1890.0;-218.75;-341.25
3.12486;90055064;;90055064;135.664;-431.758;919.148;630.0;-148.75;0.0;90054635;-147.498;-38.552;994.056;1802.5;-393.75;-315.0
3.136149;90066353;;90066353;135.542;-432.246;919.392;376.25;-175.0;78.75;90065918;-145.546;-40.138;991.738;1688.75;-358.75;-253.75
3.147515;90077719;;90077719;136.884;-432.002;919.758;472.5;-131.25;87.5;90077290;-144.814;-38.796;992.104;1706.25;-472.5;-280.0
3.158891;90089095;;90089095;136.64;-432.246;919.636;472.5;-131.25;52.5;90088660;-145.79;-38.308;993.812;1741.25;-402.5;-288.75
3.170256;90100460;;90100460;135.42;-431.514;919.514;498.75;-122.5;26.25;90100031;-144.692;-38.43;994.056;1793.75;-385.0;-341.25
3.181631;90111835;;90111835;136.884;-430.05;919.026;332.5;-218.75;-17.5;90111401;-142.252;-38.43;995.276;1741.25;-210.0;-350.0
3.193176;90123380;;90123380;136.274;-430.05;917.44;350.0;-175.0;96.25;90122951;-144.448;-34.404;992.714;1671.25;-70.0;-341.25
3.204372;90134576;;90134576;134.444;-429.684;918.538;507.5;-166.25;52.5;90134142;-145.912;-35.38;994.056;1741.25;-8.75;-323.75
3.215563;90145767;;90145767;136.03;-430.66;919.27;560.0;-105.0;70.0;90145339;-144.448;-39.772;993.08;1767.5;-35.0;-350.0
3.226852;90157056;;90157056;133.834;-431.514;920.246;481.25;-105.0;96.25;90156622;-148.352;-37.454;994.788;1767.5;61.25;-376.25
3.238044;90168248;;90168248;134.078;-431.392;919.148;411.25;-183.75;26.25;90167819;-147.498;-38.064;993.812;1697.5;-210.0;-411.25
3.249419;90179623;;90179623;135.176;-433.71;919.514;385.0;-131.25;96.25;90179189;-145.79;-40.016;990.762;1811.25;-472.5;-306.25
3.260785;90190989;;90190989;136.64;-433.344;917.318;490.0;-218.75;78.75;90190560;-145.424;-38.918;991.86;1741.25;-586.25;-350.0
3.27216;90202364;;90202364;135.176;-432.246;918.538;498.75;-140.0;96.25;90201930;-143.106;-38.918;993.324;1715.0;-761.25;-262.5
3.283525;90213729;;90213729;137.738;-431.392;919.758;253.75;-131.25;43.75;90213301;-143.106;-37.82;995.032;1767.5;-840.0;-271.25
3.294901;90225105;;90225105;137.86;-427.854;918.538;376.25;-105.0;8.75;90224671;-140.666;-37.088;996.252;1627.5;-656.25;-236.25
3.306178;90236382;;90236382;138.226;-430.05;917.928;367.5;-157.5;52.5;90235953;-142.74;-35.38;994.666;1767.5;-358.75;-218.75
3.317555;90247759;;90247759;138.348;-431.27;918.05;525.0;-131.25;61.25;90247325;-141.398;-37.698;995.52;1793.75;0.0;-341.25
3.32866;90258864;;90258864;135.054;-428.83;920.368;542.5;-157.5;17.5;90258435;-145.668;-37.82;993.568;1715.0;271.25;-288.75
3.339955;90270159;;90270159;135.908;-427.854;917.684;525.0;-122.5;105.0;90269725;-145.912;-37.454;992.104;1811.25;236.25;-350.0
3.351385;90281589;;90281589;137.25;-431.27;918.416;603.75;-131.25;26.25;90281160;-146.4;-38.186;992.348;1820.0;288.75;-332.5
3.362603;90292807;;90292807;134.322;-434.564;919.758;682.5;-157.5;26.25;90292373;-146.4;-38.186;991.982;1916.25;87.5;-323.75
3.373794;90303998;;90303998;132.492;-430.416;918.538;542.5;-201.25;-8.75;90303569;-146.522;-38.43;990.03;1811.25;-113.75;-358.75
3.38517;90315374;;90315374;134.81;-432.002;920.612;402.5;-122.5;78.75;90314940;-143.106;-39.162;993.202;1837.5;-280.0;-358.75
3.396535;90326739;;90326739;137.372;-433.1;920.246;568.75;-201.25;-8.75;90326310;-144.57;-38.064;995.398;1758.75;-420.0;-297.5
3.407911;90338115;;90338115;136.274;-431.026;917.684;463.75;-236.25;35.0;90337681;-146.156;-37.454;991.494;1636.25;-446.25;-280.0
3.419276;90349480;;90349480;135.542;-430.782;919.392;218.75;-122.5;61.25;90349051;-141.642;-37.942;993.202;1610.0;-341.25;-297.5
3.430652;90360856;;90360856;136.518;-431.514;915.732;350.0;-148.75;96.25;90360421;-141.276;-35.624;995.154;1496.25;-280.0;-315.0
3.442017;90372221;;90372221;133.834;-427.122;919.026;472.5;-148.75;26.25;90371792;-143.594;-34.16;996.13;1715.0;-210.0;-236.25
3.453392;90383596;;90383596;134.2;-429.318;919.148;490.0;-157.5;61.25;90383162;-146.4;-37.332;994.422;1898.75;-113.75;-306.25
3.464757;90394961;;90394961;135.42;-430.172;920.978;411.25;-96.25;52.5;90394532;-147.132;-38.674;993.446;1741.25;-245.0;-315.0
3.476045;90406249;;90406249;133.59;-431.758;920.246;262.5;-96.25;105.0;90405815;-144.814;-41.48;989.42;1636.25;-341.25;-323.75
3.487411;90417615;;90417615;137.372;-432.734;916.342;428.75;-183.75;17.5;90417186;-147.376;-38.43;994.3;1741.25;-420.0;-280.0
3.498787;90428991;;90428991;134.81;-431.27;920.856;682.5;-175.0;8.75;90428557;-144.448;-38.43;993.446;1863.75;-446.25;-350.0
3.510064;90440268;;90440268;136.64;-428.098;919.514;647.5;-166.25;0.0;90439839;-142.374;-36.356;994.91;1793.75;-341.25;-297.5
3.521353;90451557;;90451557;136.762;-432.124;919.88;253.75;-105.0;61.25;90451123;-141.886;-38.308;994.91;1706.25;-140.0;-280.0
3.532719;90462923;;90462923;136.884;-430.782;917.928;350.0;-175.0;61.25;90462494;-141.764;-36.6;992.47;1820.0;0.0;-332.5
3.543835;90474039;;90474039;137.494;-432.368;918.782;743.75;-166.25;35.0;90473604;-143.838;-35.99;994.666;1933.75;140.0;-315.0
3.555113;90485317;;90485317;135.786;-426.756;920.246;735.0;-183.75;-78.75;90484888;-145.18;-36.112;997.228;2082.5;341.25;-367.5
3.566564;90496768;;90496768;127.124;-419.558;908.046;288.75;-140.0;70.0;90496334;-145.546;-37.088;993.202;1688.75;175.0;-393.75
