timestamp_s;timestamp_us;emg_raw;imu1_timestamp_us;imu1_ax;imu1_ay;imu1_az;imu1_gx;imu1_gy;imu1_gz;imu2_timestamp_us;imu2_ax;imu2_ay;imu2_az;imu2_gx;imu2_gy;imu2_gz
0.0;0;1241;;;;;;;;;;;;;;
0.0025;2500;831;;;;;;;;;;;;;;
0.005;5000;507;;;;;;;;;;;;;;
0.0075;7500;350;;;;;;;;;;;;;;
0.01;10000;238;;;;;;;;;;;;;;
0.0125;12500;200;;;;;;;;;;;;;;
0.015;15000;182;;;;;;;;;;;;;;
0.0175;17500;188;;;;;;;;;;;;;;
0.02;20000;171;;;;;;;;;;;;;;
0.0225;22500;157;;;;;;;;;;;;;;
0.025;25000;152;;;;;;;;;;;;;;
0.0275;27500;155;;;;;;;;;;;;;;
0.03;30000;168;30970;6.582;-23.014;8.074;17.938;-7.0;17.938;30522;-2.166;-6.002;-2.166;80.508;16.401;80.5
0.0325;32500;172;;;;;;;;;;;;;;
0.035;35000;182;;;;;;;;;;;;;;
0.0375;37500;182;;;;;;;;;;;;;;
0.04;40000;170;;;;;;;;;;;;;;
0.0425;42500;155;;;;;;;;;;;;;;
0.045;45000;152;;;;;;;;;;;;;;
0.0475;47500;153;;;;;;;;;;;;;;
0.05;50000;155;;;;;;;;;;;;;;
0.0525;52500;170;;;;;;;;;;;;;;
0.055;55000;174;;;;;;;;;;;;;;
0.0575;57500;174;58503;12.688;-44.842;14.106;38.916;-15.837;38.916;58038;-4.18;-11.68;-4.18;156.107;8.143;156.1
0.06;60000;168;;;;;;;;;;;;;;
0.0625;62500;156;;;;;;;;;;;;;;
0.065;65000;151;;;;;;;;;;;;;;
0.0675;67500;153;;;;;;;;;;;;;;
0.07;70000;163;;;;;;;;;;;;;;
0.0725;72500;169;;;;;;;;;;;;;;
0.075;75000;175;;;;;;;;;;;;;;
0.0775;77500;175;;;;;;;;;;;;;;
0.08;80000;168;;;;;;;;;;;;;;
0.0825;82500;156;;;;;;;;;;;;;;
0.085;85000;152;;;;;;;;;;;;;;
0.0875;87500;153;;;;;;;;;;;;;;
0.09;90000;157;;;;;;;;;;;;;;
0.0925;92500;169;;;;;;;;;;;;;;
0.095;95000;175;;;;;;;;;;;;;;
0.0975;97500;173;;;;;;;;;;;;;;
0.1;100000;182;;;;;;;;101091;-6.1;-17.257;-6.1;225.739;0.736;225.733
0.1025;102500;172;101528;18.599;-65.463;19.946;56.657;-22.483;56.657;;;;;;;
0.105;105000;171;;;;;;;;;;;;;;
0.1075;107500;139;;;;;;;;;;;;;;
0.11;110000;157;;;;;;;;;;;;;;
0.1125;112500;142;;;;;;;;;;;;;;
0.115;115000;173;;;;;;;;;;;;;;
0.1175;117500;168;;;;;;;;;;;;;;
0.12;120000;170;;;;;;;;;;;;;;
0.1225;122500;184;;;;;;;;;;;;;;
0.125;125000;153;;;;;;;;;;;;;;
0.1275;127500;140;;;;;;;;;;;;;;
0.13;130000;139;;;;;;;;;;;;;;
0.1325;132500;168;133652;24.172;-85.302;25.451;75.262;-30.984;75.262;133206;-8.034;-22.482;-8.034;285.765;-8.488;285.758
0.135;135000;377;;;;;;;;;;;;;;
0.1375;137500;264;;;;;;;;;;;;;;
0.14;140000;205;;;;;;;;;;;;;;
0.1425;142500;174;;;;;;;;;;;;;;
0.145;145000;174;;;;;;;;;;;;;;
0.1475;147500;142;;;;;;;;;;;;;;
0.15;150000;138;;;;;;;;;;;;;;
0.1525;152500;139;;;;;;;;;;;;;;
0.155;155000;155;;;;;;;;;;;;;;
0.1575;157500;169;;;;;;;;;;;;;;
0.16;160000;169;;;;;;;;;;;;;;
0.1625;162500;396;;;;;;;;;;;;;;
0.165;165000;248;165758;29.435;-104.034;30.651;92.061;-36.435;92.061;165320;-9.828;-27.403;-9.828;346.727;-16.814;346.72
0.1675;167500;183;;;;;;;;;;;;;;
0.17;170000;173;;;;;;;;;;;;;;
0.1725;172500;168;;;;;;;;;;;;;;
0.175;175000;172;;;;;;;;;;;;;;
0.1775;177500;160;;;;;;;;;;;;;;
0.18;180000;168;;;;;;;;;;;;;;
0.1825;182500;182;;;;;;;;;;;;;;
0.185;185000;152;;;;;;;;;;;;;;
0.1875;187500;140;;;;;;;;;;;;;;
0.19;190000;138;;;;;;;;;;;;;;
0.1925;192500;141;;;;;;;;193527;-11.502;-32.121;-11.502;407.265;-27.348;407.259
0.195;195000;172;193972;34.491;-121.823;35.645;104.958;-43.363;104.958;;;;;;;
0.1975;197500;168;;;;;;;;;;;;;;
0.2;200000;169;;;;;;;;;;;;;;
0.2025;202500;159;;;;;;;;;;;;;;
0.205;205000;56;;;;;;;;;;;;;;
0.2075;207500;271;;;;;;;;;;;;;;
0.21;210000;202;;;;;;;;;;;;;;
0.2125;212500;175;;;;;;;;;;;;;;
0.215;215000;182;;;;;;;;;;;;;;
0.2175;217500;187;;;;;;;;;;;;;;
0.22;220000;186;219657;39.409;-138.741;40.506;124.21;-50.82;124.21;219220;-13.05;-36.566;-13.05;470.465;-34.731;470.459
0.2225;222500;166;;;;;;;;;;;;;;
0.225;225000;169;;;;;;;;;;;;;;
0.2275;227500;167;;;;;;;;;;;;;;
0.23;230000;158;;;;;;;;;;;;;;
0.2325;232500;141;;;;;;;;;;;;;;
0.235;235000;172;;;;;;;;;;;;;;
0.2375;237500;407;;;;;;;;;;;;;;
0.24;240000;284;;;;;;;;240834;-14.477;-40.886;-14.477;523.941;-50.057;523.936
0.2425;242500;218;241280;43.886;-154.838;44.928;131.125;-55.716;131.125;;;;;;;
0.245;245000;170;;;;;;;;;;;;;;
0.2475;247500;144;;;;;;;;;;;;;;
0.25;250000;155;;;;;;;;;;;;;;
0.2525;252500;150;;;;;;;;;;;;;;
0.255;255000;173;;;;;;;;;;;;;;
0.2575;257500;168;;;;;;;;;;;;;;
0.26;260000;170;;;;;;;;;;;;;;
0.2625;262500;168;;;;;;;;;;;;;;
0.265;265000;172;;;;;;;;;;;;;;
0.2675;267500;157;;;;;;;;;;;;;;
0.27;270000;347;269825;48.335;-169.983;49.325;148.194;-59.931;148.194;269387;-15.766;-44.887;-15.766;579.557;-58.929;579.552
0.2725;272500;233;;;;;;;;;;;;;;
0.275;275000;189;;;;;;;;;;;;;;
0.2775;277500;200;;;;;;;;;;;;;;
0.28;280000;188;;;;;;;;;;;;;;
0.2825;282500;169;;;;;;;;;;;;;;
0.285;285000;172;;;;;;;;;;;;;;
0.2875;287500;141;;;;;;;;;;;;;;
0.29;290000;138;;;;;;;;;;;;;;
0.2925;292500;166;;;;;;;;;;;;;;
0.295;295000;172;;;;;;;;;;;;;;
0.2975;297500;25;298214;52.482;-184.469;53.422;159.159;-66.122;159.159;297767;-17.162;-48.792;-17.162;621.454;-63.42;621.449
0.3;300000;300;;;;;;;;;;;;;;
0.3025;302500;215;;;;;;;;;;;;;;
0.305;305000;170;;;;;;;;;;;;;;
0.3075;307500;152;;;;;;;;;;;;;;
0.31;310000;165;;;;;;;;;;;;;;
0.3125;312500;159;;;;;;;;;;;;;;
0.315;315000;172;;;;;;;;;;;;;;
0.3175;317500;156;;;;;;;;;;;;;;
0.32;320000;168;;;;;;;;;;;;;;
0.3225;322500;240;;;;;;;;;;;;;;
0.325;325000;302;;;;;;;;;;;;;;
0.3275;327500;190;326758;56.244;-198.181;57.138;172.201;-70.253;172.201;326321;-18.451;-52.342;-18.451;664.319;-68.999;664.314
0.33;330000;155;;;;;;;;;;;;;;
0.3325;332500;144;;;;;;;;;;;;;;
0.335;335000;171;;;;;;;;;;;;;;
0.3375;337500;167;;;;;;;;;;;;;;
0.34;340000;168;;;;;;;;;;;;;;
0.3425;342500;157;;;;;;;;;;;;;;
0.345;345000;393;;;;;;;;;;;;;;
0.3475;347500;265;;;;;;;;;;;;;;
0.35;350000;183;;;;;;;;;;;;;;
0.3525;352500;155;;;;;;;;;;;;;;
0.355;355000;157;355145;59.959;-211.184;60.808;186.341;-73.303;186.341;354701;-19.542;-55.795;-19.542;711.603;-83.924;711.599
0.3575;357500;168;;;;;;;;;;;;;;
0.36;360000;170;;;;;;;;;;;;;;
0.3625;362500;158;;;;;;;;;;;;;;
0.365;365000;152;;;;;;;;;;;;;;
0.3675;367500;136;;;;;;;;;;;;;;
0.37;370000;137;;;;;;;;;;;;;;
0.3725;372500;0;;;;;;;;;;;;;;
0.375;375000;313;375700;63.531;-223.585;64.337;194.961;-77.95;194.961;375261;-20.724;-59.038;-20.724;756.96;-95.478;756.956
0.3775;377500;234;;;;;;;;;;;;;;
0.38;380000;198;;;;;;;;;;;;;;
0.3825;382500;171;;;;;;;;;;;;;;
0.385;385000;154;;;;;;;;;;;;;;
0.3875;387500;155;;;;;;;;;;;;;;
0.39;390000;138;;;;;;;;;;;;;;
0.3925;392500;159;392826;66.912;-235.391;67.678;203.151;-84.115;203.151;392381;-21.786;-62.082;-21.786;792.612;-103.391;792.608
0.395;395000;173;;;;;;;;;;;;;;
0.3975;397500;167;;;;;;;;;;;;;;
0.4;400000;186;;;;;;;;;;;;;;
0.4025;402500;363;;;;;;;;;;;;;;
0.405;405000;254;;;;;;;;;;;;;;
0.4075;407500;192;;;;;;;;;;;;;;
0.41;410000;154;;;;;;;;;;;;;;
0.4125;412500;170;;;;;;;;;;;;;;
0.415;415000;154;414519;70.185;-246.472;70.912;213.993;-88.222;213.993;414080;-22.868;-65.054;-22.868;832.169;-106.972;832.165
0.4175;417500;185;;;;;;;;;;;;;;
0.42;420000;187;;;;;;;;;;;;;;
0.4225;422500;156;;;;;;;;;;;;;;
0.425;425000;153;;;;;;;;;;;;;;
0.4275;427500;137;;;;;;;;;;;;;;
0.43;430000;0;;;;;;;;;;;;;;
0.4325;432500;294;;;;;;;;;;;;;;
0.435;435000;204;;;;;;;;;;;;;;
0.4375;437500;183;;;;;;;;;;;;;;
0.44;440000;192;;;;;;;;441237;-23.86;-67.907;-23.86;867.56;-109.061;867.557
0.4425;442500;168;441683;73.215;-257.011;73.906;227.794;-91.686;227.794;;;;;;;
0.445;445000;174;;;;;;;;;;;;;;
0.4475;447500;142;;;;;;;;;;;;;;
0.45;450000;157;;;;;;;;;;;;;;
0.4525;452500;167;;;;;;;;;;;;;;
0.455;455000;175;;;;;;;;;;;;;;
0.4575;457500;188;;;;;;;;;;;;;;
0.46;460000;330;;;;;;;;;;;;;;
0.4625;462500;251;;;;;;;;;;;;;;
0.465;465000;182;;;;;;;;;;;;;;
0.4675;467500;154;;;;;;;;468502;-24.845;-70.648;-24.845;903.807;-108.858;903.804
0.47;470000;167;468941;76.063;-266.999;76.719;233.029;-95.414;233.029;;;;;;;
0.4725;472500;143;;;;;;;;;;;;;;
0.475;475000;171;;;;;;;;;;;;;;
0.4775;477500;168;;;;;;;;;;;;;;
0.48;480000;361;;;;;;;;;;;;;;
0.4825;482500;248;;;;;;;;;;;;;;
0.485;485000;188;;;;;;;;;;;;;;
0.4875;487500;156;;;;;;;;;;;;;;
0.49;490000;142;;;;;;;;;;;;;;
0.4925;492500;168;;;;;;;;;;;;;;
0.495;495000;158;;;;;;;;;;;;;;
0.4975;497500;344;497591;78.902;-276.701;79.526;237.128;-101.581;237.128;497142;-25.768;-73.277;-25.768;940.867;-108.665;940.864
0.5;500000;266;;;;;;;;;;;;;;
0.5025;502500;200;;;;;;;;;;;;;;
0.505;505000;169;;;;;;;;;;;;;;
0.5075;507500;152;;;;;;;;;;;;;;
0.51;510000;142;;;;;;;;;;;;;;
0.5125;512500;169;;;;;;;;;;;;;;
0.515;515000;174;;;;;;;;;;;;;;
0.5175;517500;24;518307;81.509;-286.003;82.101;240.584;-104.377;240.584;517867;-26.444;-75.829;-26.444;963.824;-113.294;963.821
0.52;520000;300;;;;;;;;;;;;;;
0.5225;522500;221;;;;;;;;;;;;;;
0.525;525000;199;;;;;;;;;;;;;;
0.5275;527500;169;;;;;;;;;;;;;;
0.53;530000;158;;;;;;;;;;;;;;
0.5325;532500;141;;;;;;;;;;;;;;
0.535;535000;156;;;;;;;;;;;;;;
0.5375;537500;186;;;;;;;;;;;;;;
0.54;540000;169;;;;;;;;;;;;;;
0.5425;542500;159;;;;;;;;;;;;;;
0.545;545000;329;545159;84.027;-294.627;84.59;258.304;-106.595;258.304;544710;-27.116;-78.15;-27.116;990.883;-119.442;990.88
0.5475;547500;264;;;;;;;;;;;;;;
0.55;550000;204;;;;;;;;;;;;;;
0.5525;552500;183;;;;;;;;;;;;;;
0.555;555000;158;;;;;;;;;;;;;;
0.5575;557500;169;;;;;;;;;;;;;;
0.56;560000;189;;;;;;;;;;;;;;
0.5625;562500;168;;;;;;;;;;;;;;
0.565;565000;175;565872;86.347;-302.734;86.882;268.577;-109.141;268.577;565431;-27.822;-80.33;-27.822;1007.401;-118.282;1007.398
0.5675;567500;169;;;;;;;;;;;;;;
0.57;570000;159;;;;;;;;;;;;;;
0.5725;572500;253;;;;;;;;;;;;;;
0.575;575000;269;;;;;;;;;;;;;;
0.5775;577500;235;;;;;;;;;;;;;;
0.58;580000;207;;;;;;;;;;;;;;
0.5825;582500;199;;;;;;;;;;;;;;
0.585;585000;174;;;;;;;;;;;;;;
0.5875;587500;141;;;;;;;;;;;;;;
0.59;590000;158;;;;;;;;;;;;;;
0.5925;592500;168;;;;;;;;;;;;;;
0.595;595000;172;594448;88.624;-310.454;89.132;275.71;-110.246;275.71;593999;-28.645;-82.267;-28.645;1034.031;-114.556;1034.028
0.5975;597500;187;;;;;;;;;;;;;;
0.6;600000;0;;;;;;;;;;;;;;
0.6025;602500;344;;;;;;;;;;;;;;
0.605;605000;236;;;;;;;;;;;;;;
0.6075;607500;159;;;;;;;;;;;;;;
0.61;610000;168;;;;;;;;;;;;;;
0.6125;612500;151;;;;;;;;;;;;;;
0.615;615000;174;615347;90.665;-317.837;91.147;282.925;-114.796;282.925;614907;-29.342;-84.242;-29.342;1054.954;-121.515;1054.952
0.6175;617500;187;;;;;;;;;;;;;;
0.62;620000;169;;;;;;;;;;;;;;
0.6225;622500;381;;;;;;;;;;;;;;
0.625;625000;238;;;;;;;;;;;;;;
0.6275;627500;189;;;;;;;;;;;;;;
0.63;630000;169;;;;;;;;;;;;;;
0.6325;632500;151;632821;92.841;-324.93;93.3;291.091;-114.744;291.091;632374;-29.9;-86.191;-29.9;1080.082;-129.877;1080.079
0.635;635000;174;;;;;;;;;;;;;;
0.6375;637500;168;;;;;;;;;;;;;;
0.64;640000;170;;;;;;;;;;;;;;
0.6425;642500;167;;;;;;;;;;;;;;
0.645;645000;154;;;;;;;;;;;;;;
0.6475;647500;140;;;;;;;;;;;;;;
0.65;650000;316;;;;;;;;;;;;;;
0.6525;652500;235;;;;;;;;;;;;;;
0.655;655000;187;;;;;;;;;;;;;;
0.6575;657500;182;;;;;;;;;;;;;;
0.66;660000;175;;;;;;;;;;;;;;
0.6625;662500;169;661715;94.909;-331.68;95.345;291.412;-118.632;291.412;661275;-30.412;-87.932;-30.412;1100.015;-122.508;1100.013
0.665;665000;172;;;;;;;;;;;;;;
0.6675;667500;141;;;;;;;;;;;;;;
0.67;670000;359;;;;;;;;;;;;;;
0.6725;672500;231;;;;;;;;;;;;;;
0.675;675000;189;;;;;;;;;;;;;;
0.6775;677500;175;;;;;;;;;;;;;;
0.68;680000;198;;;;;;;;;;;;;;
0.6825;682500;185;;;;;;;;;;;;;;
0.685;685000;156;;;;;;;;;;;;;;
0.6875;687500;144;;;;;;;;;;;;;;
0.69;690000;141;690452;96.63;-338.063;97.044;310.966;-124.075;310.966;690003;-31.002;-89.721;-31.002;1129.014;-108.945;1129.012
0.6925;692500;159;;;;;;;;;;;;;;
0.695;695000;155;;;;;;;;;;;;;;
0.6975;697500;366;;;;;;;;;;;;;;
0.7;700000;297;;;;;;;;;;;;;;
0.7025;702500;215;;;;;;;;;;;;;;
0.705;705000;189;;;;;;;;;;;;;;
0.7075;707500;152;;;;;;;;;;;;;;
0.71;710000;141;;;;;;;;710902;-31.843;-91.414;-31.843;1146.064;-112.686;1146.062
0.7125;712500;149;711342;98.411;-344.156;98.804;319.043;-124.434;319.043;;;;;;;
0.715;715000;172;;;;;;;;;;;;;;
0.7175;717500;165;;;;;;;;;;;;;;
0.72;720000;345;;;;;;;;;;;;;;
0.7225;722500;234;;;;;;;;;;;;;;
0.725;725000;174;;;;;;;;;;;;;;
0.7275;727500;169;;;;;;;;;;;;;;
0.73;730000;141;730201;99.944;-349.83;100.317;312.716;-123.025;312.716;729754;-32.453;-93.029;-32.453;1167.51;-129.801;1167.509
0.7325;732500;160;;;;;;;;;;;;;;
0.735;735000;153;;;;;;;;;;;;;;
0.7375;737500;362;;;;;;;;;;;;;;
0.74;740000;246;;;;;;;;;;;;;;
0.7425;742500;205;;;;;;;;;;;;;;
0.745;745000;183;;;;;;;;;;;;;;
0.7475;747500;166;;;;;;;;;;;;;;
0.75;750000;157;;;;;;;;;;;;;;
0.7525;752500;144;;;;;;;;;;;;;;
0.755;755000;174;;;;;;;;;;;;;;
0.7575;757500;186;;;;;;;;758740;-32.752;-94.337;-32.752;1181.323;-139.499;1181.321
0.76;760000;186;759180;101.541;-355.329;101.896;304.517;-118.186;304.517;;;;;;;
0.7625;762500;183;;;;;;;;;;;;;;
0.765;765000;2;;;;;;;;;;;;;;
0.7675;767500;282;;;;;;;;;;;;;;
0.77;770000;203;;;;;;;;;;;;;;
0.7725;772500;183;;;;;;;;;;;;;;
0.775;775000;187;;;;;;;;;;;;;;
0.7775;777500;168;;;;;;;;;;;;;;
0.78;780000;185;;;;;;;;;;;;;;
0.7825;782500;165;;;;;;;;;;;;;;
0.785;785000;171;;;;;;;;;;;;;;
0.7875;787500;158;786886;103.046;-360.48;103.383;338.291;-117.964;338.291;786439;-33.213;-95.726;-33.213;1203.631;-131.649;1203.63
0.79;790000;140;;;;;;;;;;;;;;
0.7925;792500;142;;;;;;;;;;;;;;
0.795;795000;346;;;;;;;;;;;;;;
0.7975;797500;249;;;;;;;;;;;;;;
0.8;800000;219;;;;;;;;;;;;;;
0.8025;802500;173;;;;;;;;;;;;;;
0.805;805000;155;;;;;;;;;;;;;;
0.8075;807500;141;807948;104.439;-365.081;104.759;361.627;-121.254;361.627;807508;-33.724;-96.912;-33.724;1200.762;-126.379;1200.761
0.81;810000;156;;;;;;;;;;;;;;
0.8125;812500;168;;;;;;;;;;;;;;
0.815;815000;412;;;;;;;;;;;;;;
0.8175;817500;269;;;;;;;;;;;;;;
0.82;820000;207;;;;;;;;;;;;;;
0.8225;822500;183;;;;;;;;;;;;;;
0.825;825000;156;;;;;;;;;;;;;;
0.8275;827500;142;;;;;;;;;;;;;;
0.83;830000;157;;;;;;;;;;;;;;
0.8325;832500;141;;;;;;;;;;;;;;
0.835;835000;330;;;;;;;;836249;-34.02;-98.118;-34.02;1223.849;-114.81;1223.848
0.8375;837500;237;836696;105.75;-369.568;106.054;363.67;-119.566;363.67;;;;;;;
0.84;840000;201;;;;;;;;;;;;;;
0.8425;842500;174;;;;;;;;;;;;;;
0.845;845000;174;;;;;;;;;;;;;;
0.8475;847500;143;;;;;;;;;;;;;;
0.85;850000;138;;;;;;;;;;;;;;
0.8525;852500;143;;;;;;;;;;;;;;
0.855;855000;172;;;;;;;;;;;;;;
0.8575;857500;185;;;;;;;;;;;;;;
0.86;860000;169;;;;;;;;;;;;;;
0.8625;862500;316;;;;;;;;;;;;;;
0.865;865000;269;864302;106.898;-374.081;107.187;340.674;-122.338;340.674;863862;-34.301;-99.263;-34.301;1237.469;-124.819;1237.468
0.8675;867500;205;;;;;;;;;;;;;;
0.87;870000;174;;;;;;;;;;;;;;
0.8725;872500;154;;;;;;;;;;;;;;
0.875;875000;156;;;;;;;;;;;;;;
0.8775;877500;168;;;;;;;;;;;;;;
0.88;880000;187;;;;;;;;;;;;;;
0.8825;882500;184;;;;;;;;;;;;;;
0.885;885000;171;885378;108.129;-378.447;108.403;354.703;-124.533;354.703;884931;-34.746;-100.29;-34.746;1263.971;-131.703;1263.969
0.8875;887500;140;;;;;;;;;;;;;;
0.89;890000;315;;;;;;;;;;;;;;
0.8925;892500;296;;;;;;;;;;;;;;
0.895;895000;207;;;;;;;;;;;;;;
0.8975;897500;207;;;;;;;;;;;;;;
0.9;900000;174;;;;;;;;;;;;;;
0.9025;902500;168;;;;;;;;;;;;;;
0.905;905000;152;;;;;;;;;;;;;;
0.9075;907500;158;908655;109.316;-382.509;109.577;356.218;-121.807;356.218;908215;-35.168;-101.339;-35.168;1281.272;-138.243;1281.271
0.91;910000;137;;;;;;;;;;;;;;
0.9125;912500;348;;;;;;;;;;;;;;
0.915;915000;249;;;;;;;;;;;;;;
0.9175;917500;189;;;;;;;;;;;;;;
0.92;920000;182;;;;;;;;;;;;;;
0.9225;922500;186;;;;;;;;;;;;;;
0.925;925000;172;;;;;;;;;;;;;;
0.9275;927500;166;;;;;;;;;;;;;;
0.93;930000;138;;;;;;;;;;;;;;
0.9325;932500;160;;;;;;;;;;;;;;
0.935;935000;172;934525;110.469;-386.155;110.717;356.345;-129.716;356.345;934076;-35.819;-102.439;-35.819;1302.521;-141.394;1302.52
0.9375;937500;184;;;;;;;;;;;;;;
0.94;940000;59;;;;;;;;;;;;;;
0.9425;942500;281;;;;;;;;;;;;;;
0.945;945000;219;;;;;;;;;;;;;;
0.9475;947500;176;;;;;;;;;;;;;;
0.95;950000;158;;;;;;;;;;;;;;
0.9525;952500;168;;;;;;;;;;;;;;
0.955;955000;156;;;;;;;;;;;;;;
0.9575;957500;168;;;;;;;;;;;;;;
0.96;960000;187;;;;;;;;;;;;;;
0.9625;962500;157;;;;;;;;;;;;;;
0.965;965000;170;964719;111.643;-389.869;111.879;347.277;-127.605;347.277;964279;-36.346;-103.411;-36.346;1316.583;-166.699;1316.581
0.9675;967500;379;;;;;;;;;;;;;;
0.97;970000;283;;;;;;;;;;;;;;
0.9725;972500;217;;;;;;;;;;;;;;
0.975;975000;189;;;;;;;;;;;;;;
0.9775;977500;188;;;;;;;;;;;;;;
0.98;980000;171;;;;;;;;;;;;;;
0.9825;982500;184;;;;;;;;;;;;;;
0.985;985000;171;;;;;;;;;;;;;;
0.9875;987500;141;;;;;;;;;;;;;;
0.99;990000;346;;;;;;;;;;;;;;
0.9925;992500;220;;;;;;;;;;;;;;
0.995;995000;205;995017;112.576;-393.336;112.8;344.351;-124.725;344.351;994568;-36.56;-104.31;-36.56;1329.941;-191.176;1329.94
0.9975;997500;199;;;;;;;;;;;;;;
1.0;1000000;172;;;;;;;;;;;;;;
1.0025;1002500;168;;;;;;;;;;;;;;
1.005;1005000;152;;;;;;;;;;;;;;
1.0075;1007500;156;;;;;;;;;;;;;;
1.01;1010000;155;;;;;;;;;;;;;;
1.0125;1012500;381;;;;;;;;;;;;;;
1.015;1015000;254;1016176;113.48;-396.812;113.693;339.383;-123.739;339.383;1015736;-36.788;-105.048;-36.788;1336.506;-183.368;1336.505
1.0175;1017500;204;;;;;;;;;;;;;;
1.02;1020000;203;;;;;;;;;;;;;;
1.0225;1022500;187;;;;;;;;;;;;;;
1.025;1025000;151;;;;;;;;;;;;;;
1.0275;1027500;138;;;;;;;;;;;;;;
1.03;1030000;138;;;;;;;;;;;;;;
1.0325;1032500;158;;;;;;;;;;;;;;
1.035;1035000;172;;;;;;;;;;;;;;
1.0375;1037500;25;;;;;;;;;;;;;;
1.04;1040000;299;;;;;;;;;;;;;;
1.0425;1042500;217;;;;;;;;;;;;;;
1.045;1045000;169;1045449;114.498;-399.871;114.7;343.852;-128.052;343.852;1045000;-37.041;-105.877;-37.041;1345.369;-164.574;1345.367
1.0475;1047500;169;;;;;;;;;;;;;;
1.05;1050000;157;;;;;;;;;;;;;;
1.0525;1052500;141;;;;;;;;;;;;;;
1.055;1055000;157;;;;;;;;;;;;;;
1.0575;1057500;188;;;;;;;;;;;;;;
1.06;1060000;170;;;;;;;;;;;;;;
1.0625;1062500;160;;;;;;;;;;;;;;
1.065;1065000;154;;;;;;;;;;;;;;
1.0675;1067500;312;;;;;;;;;;;;;;
1.07;1070000;312;;;;;;;;;;;;;;
1.0725;1072500;204;;;;;;;;;;;;;;
1.075;1075000;192;1075904;115.318;-402.71;115.51;359.034;-130.837;359.034;1075463;-37.397;-106.598;-37.397;1360.788;-169.033;1360.787
1.0775;1077500;172;;;;;;;;;;;;;;
1.08;1080000;188;;;;;;;;;;;;;;
1.0825;1082500;168;;;;;;;;;;;;;;
1.085;1085000;171;;;;;;;;;;;;;;
1.0875;1087500;159;;;;;;;;;;;;;;
1.09;1090000;165;;;;;;;;;;;;;;
1.0925;1092500;169;;;;;;;;;;;;;;
1.095;1095000;156;;;;;;;;;;;;;;
1.0975;1097500;303;1097251;115.994;-405.559;116.176;345.02;-127.357;345.02;1096804;-37.882;-107.38;-37.882;1367.123;-186.394;1367.122
1.1;1100000;327;;;;;;;;;;;;;;
1.1025;1102500;224;;;;;;;;;;;;;;
1.105;1105000;190;;;;;;;;;;;;;;
1.1075;1107500;153;;;;;;;;;;;;;;
1.11;1110000;159;;;;;;;;;;;;;;
1.1125;1112500;166;;;;;;;;;;;;;;
1.115;1115000;174;;;;;;;;;;;;;;
1.1175;1117500;186;;;;;;;;;;;;;;
1.12;1120000;384;;;;;;;;;;;;;;
1.1225;1122500;255;;;;;;;;;;;;;;
1.125;1125000;207;;;;;;;;1125895;-38.147;-108.117;-38.147;1386.267;-200.699;1386.266
1.1275;1127500;156;1126335;116.752;-408.229;116.925;346.581;-132.365;346.581;;;;;;;
1.13;1130000;159;;;;;;;;;;;;;;
1.1325;1132500;150;;;;;;;;;;;;;;
1.135;1135000;175;;;;;;;;;;;;;;
1.1375;1137500;169;;;;;;;;;;;;;;
1.14;1140000;169;;;;;;;;;;;;;;
1.1425;1142500;184;;;;;;;;;;;;;;
1.145;1145000;153;;;;;;;;;;;;;;
1.1475;1147500;156;;;;;;;;;;;;;;
1.15;1150000;332;;;;;;;;;;;;;;
1.1525;1152500;223;;;;;;;;;;;;;;
1.155;1155000;204;;;;;;;;;;;;;;
1.1575;1157500;200;1156805;117.411;-410.913;117.575;347.627;-132.309;347.627;1156358;-38.246;-108.805;-38.246;1390.891;-194.164;1390.89
1.16;1160000;170;;;;;;;;;;;;;;
1.1625;1162500;185;;;;;;;;;;;;;;
1.165;1165000;152;;;;;;;;;;;;;;
1.1675;1167500;140;;;;;;;;;;;;;;
1.17;1170000;139;;;;;;;;;;;;;;
1.1725;1172500;168;;;;;;;;;;;;;;
1.175;1175000;155;;;;;;;;;;;;;;
1.1775;1177500;185;;;;;;;;;;;;;;
1.18;1180000;377;;;;;;;;;;;;;;
1.1825;1182500;250;;;;;;;;;;;;;;
1.185;1185000;188;1185799;117.982;-413.138;118.138;355.184;-131.381;355.184;1185359;-38.463;-109.41;-38.463;1400.097;-194.081;1400.096
1.1875;1187500;155;;;;;;;;;;;;;;
1.19;1190000;159;;;;;;;;;;;;;;
1.1925;1192500;141;;;;;;;;;;;;;;
1.195;1195000;155;;;;;;;;;;;;;;
1.1975;1197500;186;;;;;;;;;;;;;;
1.2;1200000;0;;;;;;;;;;;;;;
1.2025;1202500;298;;;;;;;;;;;;;;
1.205;1205000;205;;;;;;;;;;;;;;
1.2075;1207500;158;1207410;118.494;-415.277;118.642;349.237;-130.062;349.237;1206963;-38.663;-110.143;-38.663;1402.279;-209.752;1402.279
1.21;1210000;169;;;;;;;;;;;;;;
1.2125;1212500;169;;;;;;;;;;;;;;
1.215;1215000;174;;;;;;;;;;;;;;
1.2175;1217500;167;;;;;;;;;;;;;;
1.22;1220000;168;;;;;;;;;;;;;;
1.2225;1222500;158;;;;;;;;;;;;;;
1.225;1225000;169;;;;;;;;;;;;;;
1.2275;1227500;136;;;;;;;;;;;;;;
1.23;1230000;392;;;;;;;;;;;;;;
1.2325;1232500;253;;;;;;;;;;;;;;
1.235;1235000;216;;;;;;;;;;;;;;
1.2375;1237500;175;1237692;119.084;-417.345;119.225;354.087;-129.684;354.087;1237252;-38.797;-110.816;-38.797;1412.665;-221.139;1412.665
1.24;1240000;173;;;;;;;;;;;;;;
1.2425;1242500;167;;;;;;;;;;;;;;
1.245;1245000;153;;;;;;;;;;;;;;
1.2475;1247500;156;;;;;;;;;;;;;;
1.25;1250000;138;;;;;;;;;;;;;;
1.2525;1252500;142;;;;;;;;;;;;;;
1.255;1255000;156;;;;;;;;;;;;;;
1.2575;1257500;184;;;;;;;;;;;;;;
1.26;1260000;408;;;;;;;;;;;;;;
1.2625;1262500;300;;;;;;;;;;;;;;
1.265;1265000;199;;;;;;;;;;;;;;
1.2675;1267500;174;1266700;119.779;-419.475;119.913;360.883;-133.262;360.883;1266253;-38.822;-111.448;-38.822;1422.969;-218.395;1422.969
1.27;1270000;160;;;;;;;;;;;;;;
1.2725;1272500;152;;;;;;;;;;;;;;
1.275;1275000;174;;;;;;;;;;;;;;
1.2775;1277500;188;;;;;;;;;;;;;;
1.28;1280000;187;;;;;;;;;;;;;;
1.2825;1282500;175;;;;;;;;;;;;;;
1.285;1285000;151;;;;;;;;;;;;;;
1.2875;1287500;138;1288298;120.39;-421.395;120.517;359.464;-140.161;359.464;1287858;-38.875;-111.86;-38.875;1429.696;-221.038;1429.696
1.29;1290000;351;;;;;;;;;;;;;;
1.2925;1292500;252;;;;;;;;;;;;;;
1.295;1295000;214;;;;;;;;;;;;;;
1.2975;1297500;183;;;;;;;;;;;;;;
1.3;1300000;188;;;;;;;;;;;;;;
1.3025;1302500;184;;;;;;;;;;;;;;
1.305;1305000;171;;;;;;;;;;;;;;
1.3075;1307500;158;;;;;;;;;;;;;;
1.31;1310000;0;;;;;;;;;;;;;;
1.3125;1312500;328;1312876;120.898;-423.395;121.018;352.428;-144.091;352.428;1312429;-39.012;-112.422;-39.012;1431.274;-225.736;1431.273
1.315;1315000;237;;;;;;;;;;;;;;
1.3175;1317500;214;;;;;;;;;;;;;;
1.32;1320000;200;;;;;;;;;;;;;;
1.3225;1322500;159;;;;;;;;;;;;;;
1.325;1325000;152;;;;;;;;;;;;;;
1.3275;1327500;137;;;;;;;;;;;;;;
1.33;1330000;138;;;;;;;;;;;;;;
1.3325;1332500;168;;;;;;;;;;;;;;
1.335;1335000;157;;;;;;;;;;;;;;
1.3375;1337500;187;;;;;;;;1338463;-39.013;-112.998;-39.013;1434.522;-238.074;1434.522
1.34;1340000;168;1338903;121.471;-425.271;121.586;347.932;-138.199;347.932;;;;;;;
1.3425;1342500;344;;;;;;;;;;;;;;
1.345;1345000;218;;;;;;;;;;;;;;
1.3475;1347500;167;;;;;;;;;;;;;;
1.35;1350000;170;;;;;;;;;;;;;;
1.3525;1352500;170;;;;;;;;;;;;;;
1.355;1355000;182;;;;;;;;;;;;;;
1.3575;1357500;169;;;;;;;;;;;;;;
1.36;1360000;169;;;;;;;;;;;;;;
1.3625;1362500;158;;;;;;;;;;;;;;
1.365;1365000;152;;;;;;;;;;;;;;
1.3675;1367500;157;;;;;;;;;;;;;;
1.37;1370000;360;1369380;121.565;-426.779;121.674;339.723;-142.226;339.723;1368926;-39.356;-113.241;-39.356;1455.546;-259.42;1455.546
1.3725;1372500;268;;;;;;;;;;;;;;
1.375;1375000;222;;;;;;;;;;;;;;
1.3775;1377500;203;;;;;;;;;;;;;;
1.38;1380000;171;;;;;;;;;;;;;;
1.3825;1382500;165;;;;;;;;;;;;;;
1.385;1385000;143;;;;;;;;;;;;;;
1.3875;1387500;157;;;;;;;;;;;;;;
1.39;1390000;139;;;;;;;;;;;;;;
1.3925;1392500;350;;;;;;;;;;;;;;
1.395;1395000;239;;;;;;;;;;;;;;
1.3975;1397500;201;;;;;;;;;;;;;;
1.4;1400000;202;1399655;122.19;-428.535;122.294;322.737;-153.053;322.737;1399215;-39.066;-113.679;-39.066;1447.082;-277.074;1447.081
1.4025;1402500;168;;;;;;;;;;;;;;
1.405;1405000;143;;;;;;;;;;;;;;
1.4075;1407500;140;;;;;;;;;;;;;;
1.41;1410000;140;;;;;;;;;;;;;;
1.4125;1412500;168;;;;;;;;;;;;;;
1.415;1415000;157;;;;;;;;;;;;;;
1.4175;1417500;343;;;;;;;;;;;;;;
1.42;1420000;247;;;;;;;;;;;;;;
1.4225;1422500;188;;;;;;;;;;;;;;
1.425;1425000;156;;;;;;;;;;;;;;
1.4275;1427500;143;1428576;122.187;-430.032;122.285;335.912;-154.587;335.912;1428129;-39.254;-113.851;-39.254;1457.852;-277.658;1457.852
1.43;1430000;159;;;;;;;;;;;;;;
1.4325;1432500;167;;;;;;;;;;;;;;
1.435;1435000;173;;;;;;;;;;;;;;
1.4375;1437500;168;;;;;;;;;;;;;;
1.44;1440000;186;;;;;;;;;;;;;;
1.4425;1442500;414;;;;;;;;;;;;;;
1.445;1445000;280;;;;;;;;;;;;;;
1.4475;1447500;203;;;;;;;;;;;;;;
1.45;1450000;155;1450175;122.519;-431.753;122.613;325.242;-145.108;325.242;1449736;-39.377;-114.325;-39.377;1481.21;-283.9;1481.21
1.4525;1452500;151;;;;;;;;;;;;;;
1.455;1455000;174;;;;;;;;;;;;;;
1.4575;1457500;167;;;;;;;;;;;;;;
1.46;1460000;186;;;;;;;;;;;;;;
1.4625;1462500;159;;;;;;;;;;;;;;
1.465;1465000;152;;;;;;;;;;;;;;
1.4675;1467500;140;;;;;;;;;;;;;;
1.47;1470000;139;;;;;;;;;;;;;;
1.4725;1472500;9;;;;;;;;;;;;;;
1.475;1475000;285;;;;;;;;;;;;;;
1.4775;1477500;236;;;;;;;;;;;;;;
1.48;1480000;205;1480645;123.006;-432.955;123.094;315.105;-135.228;315.105;1480197;-39.385;-114.49;-39.385;1491.149;-313.893;1491.149
1.4825;1482500;188;;;;;;;;;;;;;;
1.485;1485000;172;;;;;;;;;;;;;;
1.4875;1487500;140;;;;;;;;;;;;;;
1.49;1490000;141;;;;;;;;;;;;;;
1.4925;1492500;169;;;;;;;;;;;;;;
1.495;1495000;156;;;;;;;;;;;;;;
1.4975;1497500;188;;;;;;;;;;;;;;
1.5;1500000;168;;;;;;;;;;;;;;
1.5025;1502500;16;;;;;;;;;;;;;;
1.505;1505000;284;;;;;;;;;;;;;;
1.5075;1507500;189;;;;;;;;;;;;;;
1.51;1510000;176;1509638;122.327;-434.17;122.411;434.099;-149.029;434.099;1509198;-40.246;-114.408;-40.246;1550.029;-272.823;1550.029
1.5125;1512500;155;;;;;;;;;;;;;;
1.515;1515000;175;;;;;;;;;;;;;;
1.5175;1517500;168;;;;;;;;;;;;;;
1.52;1520000;170;;;;;;;;;;;;;;
1.5225;1522500;167;;;;;;;;;;;;;;
1.525;1525000;152;;;;;;;;;;;;;;
1.5275;1527500;139;;;;;;;;;;;;;;
1.53;1530000;155;1531164;122.463;-435.379;122.543;343.269;-92.577;343.269;1530715;-40.411;-115.092;-40.411;1579.715;-263.994;1579.715
1.5325;1532500;377;;;;;;;;;;;;;;
1.535;1535000;254;;;;;;;;;;;;;;
1.5375;1537500;206;;;;;;;;;;;;;;
1.54;1540000;202;;;;;;;;;;;;;;
1.5425;1542500;169;;;;;;;;;;;;;;
1.545;1545000;169;;;;;;;;;;;;;;
1.5475;1547500;140;;;;;;;;;;;;;;
1.55;1550000;138;;;;;;;;;;;;;;
1.5525;1552500;167;;;;;;;;;;;;;;
1.555;1555000;330;;;;;;;;;;;;;;
1.5575;1557500;255;;;;;;;;;;;;;;
1.56;1560000;199;;;;;;;;1561092;-39.977;-115.212;-39.977;1534.855;-354.045;1534.854
1.5625;1562500;171;1561532;122.879;-435.381;122.955;498.043;-159.261;498.043;;;;;;;
1.565;1565000;169;;;;;;;;;;;;;;
1.5675;1567500;137;;;;;;;;;;;;;;
1.57;1570000;138;;;;;;;;;;;;;;
1.5725;1572500;142;;;;;;;;;;;;;;
1.575;1575000;154;;;;;;;;;;;;;;
1.5775;1577500;186;;;;;;;;;;;;;;
1.58;1580000;168;;;;;;;;;;;;;;
1.5825;1582500;176;;;;;;;;;;;;;;
1.585;1585000;347;;;;;;;;;;;;;;
1.5875;1587500;218;;;;;;;;;;;;;;
1.59;1590000;189;1590366;123.085;-436.359;123.158;523.891;-175.36;523.891;1589919;-39.997;-115.088;-39.997;1566.174;-350.342;1566.174
1.5925;1592500;171;;;;;;;;;;;;;;
1.595;1595000;157;;;;;;;;;;;;;;
1.5975;1597500;168;;;;;;;;;;;;;;
1.6;1600000;188;;;;;;;;;;;;;;
1.6025;1602500;157;;;;;;;;;;;;;;
1.605;1605000;170;;;;;;;;;;;;;;
1.6075;1607500;140;;;;;;;;;;;;;;
1.61;1610000;157;;;;;;;;;;;;;;
1.6125;1612500;33;1611963;123.727;-437.69;123.795;422.447;-135.967;422.447;1611523;-39.888;-115.622;-39.888;1541.241;-318.825;1541.241
1.615;1615000;299;;;;;;;;;;;;;;
1.6175;1617500;223;;;;;;;;;;;;;;
1.62;1620000;205;;;;;;;;;;;;;;
1.6225;1622500;170;;;;;;;;;;;;;;
1.625;1625000;170;;;;;;;;;;;;;;
1.6275;1627500;139;;;;;;;;;;;;;;
1.63;1630000;157;;;;;;;;;;;;;;
1.6325;1632500;143;;;;;;;;;;;;;;
1.635;1635000;384;;;;;;;;;;;;;;
1.6375;1637500;284;;;;;;;;;;;;;;
1.64;1640000;205;;;;;;;;;;;;;;
1.6425;1642500;199;1642435;124.354;-438.376;124.419;377.262;-119.544;377.262;1641986;-40.023;-116.063;-40.023;1567.429;-306.384;1567.429
1.645;1645000;171;;;;;;;;;;;;;;
1.6475;1647500;138;;;;;;;;;;;;;;
1.65;1650000;156;;;;;;;;;;;;;;
1.6525;1652500;151;;;;;;;;;;;;;;
1.655;1655000;156;;;;;;;;;;;;;;
1.6575;1657500;184;;;;;;;;;;;;;;
1.66;1660000;159;;;;;;;;;;;;;;
1.6625;1662500;175;;;;;;;;;;;;;;
1.665;1665000;4;;;;;;;;;;;;;;
1.6675;1667500;251;;;;;;;;;;;;;;
1.67;1670000;184;;;;;;;;1670814;-39.858;-116.458;-39.858;1536.745;-340.065;1536.745
1.6725;1672500;159;1671254;125.084;-438.698;125.146;388.149;-150.754;388.149;;;;;;;
1.675;1675000;185;;;;;;;;;;;;;;
1.6775;1677500;170;;;;;;;;;;;;;;
1.68;1680000;189;;;;;;;;;;;;;;
1.6825;1682500;184;;;;;;;;;;;;;;
1.685;1685000;169;;;;;;;;;;;;;;
1.6875;1687500;140;;;;;;;;;;;;;;
1.69;1690000;138;;;;;;;;;;;;;;
1.6925;1692500;172;1692867;125.448;-440.412;125.507;400.679;-141.904;400.679;1692418;-39.652;-116.686;-39.652;1527.72;-330.499;1527.72
1.695;1695000;362;;;;;;;;;;;;;;
1.6975;1697500;266;;;;;;;;;;;;;;
1.7;1700000;204;;;;;;;;;;;;;;
1.7025;1702500;170;;;;;;;;;;;;;;
1.705;1705000;170;;;;;;;;;;;;;;
1.7075;1707500;159;;;;;;;;;;;;;;
1.71;1710000;140;;;;;;;;;;;;;;
1.7125;1712500;143;;;;;;;;;;;;;;
1.715;1715000;144;;;;;;;;;;;;;;
1.7175;1717500;319;1717429;125.636;-440.754;125.692;400.332;-161.059;400.332;1716989;-39.823;-116.83;-39.823;1548.896;-316.599;1548.896
1.72;1720000;222;;;;;;;;;;;;;;
1.7225;1722500;186;;;;;;;;;;;;;;
1.725;1725000;158;;;;;;;;;;;;;;
1.7275;1727500;141;;;;;;;;;;;;;;
1.73;1730000;157;;;;;;;;;;;;;;
1.7325;1732500;142;;;;;;;;;;;;;;
1.735;1735000;173;;;;;;;;;;;;;;
1.7375;1737500;167;;;;;;;;;;;;;;
1.74;1740000;168;;;;;;;;;;;;;;
1.7425;1742500;158;1743298;125.466;-442.098;125.519;440.253;-165.693;440.253;1742849;-39.881;-116.972;-39.881;1553.264;-317.832;1553.264
1.745;1745000;0;;;;;;;;;;;;;;
1.7475;1747500;317;;;;;;;;;;;;;;
1.75;1750000;201;;;;;;;;;;;;;;
1.7525;1752500;171;;;;;;;;;;;;;;
1.755;1755000;186;;;;;;;;;;;;;;
1.7575;1757500;171;;;;;;;;;;;;;;
1.76;1760000;168;;;;;;;;;;;;;;
1.7625;1762500;157;;;;;;;;;;;;;;
1.765;1765000;151;;;;;;;;;;;;;;
1.7675;1767500;157;;;;;;;;;;;;;;
1.77;1770000;158;;;;;;;;;;;;;;
1.7725;1772500;143;;;;;;;;1773313;-39.882;-117.096;-39.882;1556.538;-312.878;1556.538
1.775;1775000;415;1773753;125.494;-443.734;125.545;416.053;-139.909;416.053;;;;;;;
1.7775;1777500;287;;;;;;;;;;;;;;
1.78;1780000;205;;;;;;;;;;;;;;
1.7825;1782500;189;;;;;;;;;;;;;;
1.785;1785000;154;;;;;;;;;;;;;;
1.7875;1787500;156;;;;;;;;;;;;;;
1.79;1790000;156;;;;;;;;;;;;;;
1.7925;1792500;142;;;;;;;;;;;;;;
1.795;1795000;175;;;;;;;;;;;;;;
1.7975;1797500;365;;;;;;;;;;;;;;
1.8;1800000;264;;;;;;;;;;;;;;
1.8025;1802500;207;;;;;;;;;;;;;;
1.805;1805000;182;1804224;126.003;-444.715;126.051;376.438;-122.413;376.438;1803776;-39.864;-117.127;-39.864;1572.774;-308.171;1572.774
1.8075;1807500;139;;;;;;;;;;;;;;
1.81;1810000;158;;;;;;;;;;;;;;
1.8125;1812500;169;;;;;;;;;;;;;;
1.815;1815000;183;;;;;;;;;;;;;;
1.8175;1817500;171;;;;;;;;;;;;;;
1.82;1820000;4;;;;;;;;;;;;;;
1.8225;1822500;330;;;;;;;;;;;;;;
1.825;1825000;231;;;;;;;;;;;;;;
1.8275;1827500;176;;;;;;;;;;;;;;
1.83;1830000;151;;;;;;;;;;;;;;
1.8325;1832500;168;1833217;126.358;-444.665;126.403;377.741;-127.23;377.741;1832776;-39.975;-117.322;-39.975;1575.948;-302.388;1575.948
1.835;1835000;174;;;;;;;;;;;;;;
1.8375;1837500;158;;;;;;;;;;;;;;
1.84;1840000;184;;;;;;;;;;;;;;
1.8425;1842500;156;;;;;;;;;;;;;;
1.845;1845000;141;;;;;;;;;;;;;;
1.8475;1847500;349;;;;;;;;;;;;;;
1.85;1850000;219;;;;;;;;;;;;;;
1.8525;1852500;199;;;;;;;;;;;;;;
1.855;1855000;167;1854830;126.39;-445.874;126.433;374.166;-119.556;374.166;1854381;-40.002;-117.806;-40.002;1543.963;-317.893;1543.963
1.8575;1857500;185;;;;;;;;;;;;;;
1.86;1860000;188;;;;;;;;;;;;;;
1.8625;1862500;159;;;;;;;;;;;;;;
1.865;1865000;142;;;;;;;;;;;;;;
1.8675;1867500;139;;;;;;;;;;;;;;
1.87;1870000;157;;;;;;;;;;;;;;
1.8725;1872500;142;;;;;;;;;;;;;;
1.875;1875000;157;;;;;;;;;;;;;;
1.8775;1877500;394;;;;;;;;;;;;;;
1.88;1880000;267;;;;;;;;;;;;;;
1.8825;1882500;219;;;;;;;;;;;;;;
1.885;1885000;160;1885110;126.896;-446.468;126.938;346.708;-111.828;346.708;1884670;-39.783;-118.083;-39.783;1544.202;-336.561;1544.202
1.8875;1887500;159;;;;;;;;;;;;;;
1.89;1890000;138;;;;;;;;;;;;;;
1.8925;1892500;141;;;;;;;;;;;;;;
1.895;1895000;170;;;;;;;;;;;;;;
1.8975;1897500;166;;;;;;;;;;;;;;
1.9;1900000;158;;;;;;;;;;;;;;
1.9025;1902500;153;;;;;;;;;;;;;;
1.905;1905000;141;;;;;;;;;;;;;;
1.9075;1907500;282;;;;;;;;;;;;;;
1.91;1910000;265;;;;;;;;;;;;;;
1.9125;1912500;190;;;;;;;;1913671;-39.801;-118.254;-39.801;1531.305;-358.671;1531.305
1.915;1915000;172;1914120;127.31;-446.452;127.349;320.623;-129.424;320.623;;;;;;;
1.9175;1917500;169;;;;;;;;;;;;;;
1.92;1920000;185;;;;;;;;;;;;;;
1.9225;1922500;174;;;;;;;;;;;;;;
1.925;1925000;143;;;;;;;;;;;;;;
1.9275;1927500;139;;;;;;;;;;;;;;
1.93;1930000;139;;;;;;;;;;;;;;
1.9325;1932500;169;;;;;;;;;;;;;;
1.935;1935000;173;1935716;127.386;-447.56;127.424;306.342;-126.891;306.342;1935276;-40.055;-118.466;-40.055;1515.115;-419.487;1515.115
1.9375;1937500;364;;;;;;;;;;;;;;
1.94;1940000;252;;;;;;;;;;;;;;
1.9425;1942500;191;;;;;;;;;;;;;;
1.945;1945000;184;;;;;;;;;;;;;;
1.9475;1947500;160;;;;;;;;;;;;;;
1.95;1950000;139;;;;;;;;;;;;;;
1.9525;1952500;168;;;;;;;;;;;;;;
1.955;1955000;171;;;;;;;;;;;;;;
1.9575;1957500;5;;;;;;;;;;;;;;
1.96;1960000;332;;;;;;;;;;;;;;
1.9625;1962500;236;;;;;;;;;;;;;;
1.965;1965000;188;1966186;127.69;-448.118;127.726;338.275;-118.796;338.275;1965739;-39.346;-118.783;-39.346;1488.359;-555.575;1488.359
1.9675;1967500;168;;;;;;;;;;;;;;
1.97;1970000;140;;;;;;;;;;;;;;
1.9725;1972500;167;;;;;;;;;;;;;;
1.975;1975000;154;;;;;;;;;;;;;;
1.9775;1977500;168;;;;;;;;;;;;;;
1.98;1980000;186;;;;;;;;;;;;;;
1.9825;1982500;158;;;;;;;;;;;;;;
1.985;1985000;152;;;;;;;;;;;;;;
1.9875;1987500;158;;;;;;;;;;;;;;
1.99;1990000;330;;;;;;;;;;;;;;
1.9925;1992500;234;;;;;;;;;;;;;;
1.995;1995000;186;1995179;128.083;-448.367;128.117;322.673;-127.731;322.673;1994739;-39.141;-118.95;-39.141;1494.878;-557.109;1494.878
1.9975;1997500;199;;;;;;;;;;;;;;
2.0;2000000;189;;;;;;;;;;;;;;
2.0025;2002500;156;;;;;;;;;;;;;;
2.005;2005000;168;;;;;;;;;;;;;;
2.0075;2007500;139;;;;;;;;;;;;;;
2.01;2010000;138;;;;;;;;;;;;;;
2.0125;2012500;168;;;;;;;;;;;;;;
2.015;2015000;174;;;;;;;;;;;;;;
2.0175;2017500;397;2016791;128.291;-449.33;128.323;345.04;-126.157;345.04;2016344;-38.923;-119.145;-38.923;1485.76;-514.378;1485.759
2.02;2020000;282;;;;;;;;;;;;;;
2.0225;2022500;220;;;;;;;;;;;;;;
2.025;2025000;166;;;;;;;;;;;;;;
2.0275;2027500;140;;;;;;;;;;;;;;
2.03;2030000;156;;;;;;;;;;;;;;
2.0325;2032500;142;;;;;;;;;;;;;;
2.035;2035000;182;;;;;;;;;;;;;;
2.0375;2037500;168;;;;;;;;;;;;;;
2.04;2040000;361;;;;;;;;;;;;;;
2.0425;2042500;238;;;;;;;;;;;;;;
2.045;2045000;173;;;;;;;;;;;;;;
2.0475;2047500;159;2047247;128.465;-449.934;128.495;336.1;-118.537;336.1;2046807;-38.782;-119.379;-38.782;1478.409;-501.347;1478.409
2.05;2050000;140;;;;;;;;;;;;;;
2.0525;2052500;143;;;;;;;;;;;;;;
2.055;2055000;156;;;;;;;;;;;;;;
2.0575;2057500;168;;;;;;;;;;;;;;
2.06;2060000;185;;;;;;;;;;;;;;
2.0625;2062500;157;;;;;;;;;;;;;;
2.065;2065000;142;;;;;;;;;;;;;;
2.0675;2067500;138;;;;;;;;;;;;;;
2.07;2070000;382;;;;;;;;;;;;;;
2.0725;2072500;251;;;;;;;;;;;;;;
2.075;2075000;199;2076081;128.691;-450.105;128.719;333.733;-122.235;333.733;2075634;-38.649;-119.529;-38.649;1478.426;-490.28;1478.426
2.0775;2077500;182;;;;;;;;;;;;;;
2.08;2080000;170;;;;;;;;;;;;;;
2.0825;2082500;155;;;;;;;;;;;;;;
2.085;2085000;167;;;;;;;;;;;;;;
2.0875;2087500;155;;;;;;;;;;;;;;
2.09;2090000;156;;;;;;;;;;;;;;
2.0925;2092500;143;;;;;;;;;;;;;;
2.095;2095000;153;;;;;;;;;;;;;;
2.0975;2097500;185;2097679;128.753;-450.578;128.78;346.796;-124.873;346.796;2097239;-38.528;-119.707;-38.528;1478.442;-471.891;1478.442
2.1;2100000;329;;;;;;;;;;;;;;
2.1025;2102500;221;;;;;;;;;;;;;;
2.105;2105000;171;;;;;;;;;;;;;;
2.1075;2107500;141;;;;;;;;;;;;;;
2.11;2110000;156;;;;;;;;;;;;;;
2.1125;2112500;150;;;;;;;;;;;;;;
2.115;2115000;157;;;;;;;;;;;;;;
2.1175;2117500;168;;;;;;;;;;;;;;
2.12;2120000;397;;;;;;;;;;;;;;
2.1225;2122500;280;2122259;128.976;-451.01;129.002;342.144;-118.63;342.144;2121810;-38.548;-119.883;-38.548;1475.833;-466.671;1475.833
2.125;2125000;216;;;;;;;;;;;;;;
2.1275;2127500;174;;;;;;;;;;;;;;
2.13;2130000;158;;;;;;;;;;;;;;
2.1325;2132500;169;;;;;;;;;;;;;;
2.135;2135000;156;;;;;;;;;;;;;;
2.1375;2137500;185;;;;;;;;;;;;;;
2.14;2140000;184;;;;;;;;;;;;;;
2.1425;2142500;155;;;;;;;;;;;;;;
2.145;2145000;166;;;;;;;;;;;;;;
2.1475;2147500;156;2148284;129.146;-451.432;129.17;348.224;-124.511;348.224;2147844;-38.487;-119.94;-38.487;1489.104;-447.275;1489.104
2.15;2150000;0;;;;;;;;;;;;;;
2.1525;2152500;325;;;;;;;;;;;;;;
2.155;2155000;236;;;;;;;;;;;;;;
2.1575;2157500;205;;;;;;;;;;;;;;
2.16;2160000;173;;;;;;;;;;;;;;
2.1625;2162500;158;;;;;;;;;;;;;;
2.165;2165000;141;;;;;;;;;;;;;;
2.1675;2167500;136;;;;;;;;;;;;;;
2.17;2170000;154;;;;;;;;;;;;;;
2.1725;2172500;141;;;;;;;;;;;;;;
2.175;2175000;157;;;;;;;;;;;;;;
2.1775;2177500;168;;;;;;;;2178307;-38.417;-120.147;-38.417;1491.648;-433.224;1491.648
2.18;2180000;382;2178756;129.228;-451.802;129.251;359.688;-127.91;359.688;;;;;;;
2.1825;2182500;270;;;;;;;;;;;;;;
2.185;2185000;185;;;;;;;;;;;;;;
2.1875;2187500;172;;;;;;;;;;;;;;
2.19;2190000;142;;;;;;;;;;;;;;
2.1925;2192500;153;;;;;;;;;;;;;;
2.195;2195000;184;;;;;;;;;;;;;;
2.1975;2197500;169;;;;;;;;;;;;;;
2.2;2200000;169;;;;;;;;;;;;;;
2.2025;2202500;345;;;;;;;;;;;;;;
2.205;2205000;233;;;;;;;;;;;;;;
2.2075;2207500;158;;;;;;;;;;;;;;
2.21;2210000;144;2209210;129.354;-452.197;129.377;358.766;-124.14;358.766;2208770;-38.186;-120.447;-38.186;1492.754;-422.5;1492.753
2.2125;2212500;168;;;;;;;;;;;;;;
2.215;2215000;156;;;;;;;;;;;;;;
2.2175;2217500;157;;;;;;;;;;;;;;
2.22;2220000;158;;;;;;;;;;;;;;
2.2225;2222500;154;;;;;;;;;;;;;;
2.225;2225000;312;;;;;;;;;;;;;;
2.2275;2227500;283;;;;;;;;;;;;;;
2.23;2230000;215;;;;;;;;;;;;;;
2.2325;2232500;168;;;;;;;;;;;;;;
2.235;2235000;157;;;;;;;;;;;;;;
2.2375;2237500;185;2238131;129.505;-452.767;129.526;357.453;-115.308;357.453;2237684;-38.137;-120.5;-38.137;1495.553;-407.063;1495.553
2.24;2240000;158;;;;;;;;;;;;;;
2.2425;2242500;155;;;;;;;;;;;;;;
2.245;2245000;141;;;;;;;;;;;;;;
2.2475;2247500;139;;;;;;;;;;;;;;
2.25;2250000;140;;;;;;;;;;;;;;
2.2525;2252500;360;;;;;;;;;;;;;;
2.255;2255000;270;;;;;;;;;;;;;;
2.2575;2257500;203;;;;;;;;;;;;;;
2.26;2260000;183;;;;;;;;;;;;;;
2.2625;2262500;185;;;;;;;;;;;;;;
2.265;2265000;170;;;;;;;;;;;;;;
2.2675;2267500;142;2268587;129.593;-452.9;129.613;323.83;-127.042;323.83;2268147;-38.072;-120.557;-38.072;1505.651;-408.147;1505.651
2.27;2270000;140;;;;;;;;;;;;;;
2.2725;2272500;142;;;;;;;;;;;;;;
2.275;2275000;182;;;;;;;;;;;;;;
2.2775;2277500;169;;;;;;;;;;;;;;
2.28;2280000;159;;;;;;;;;;;;;;
2.2825;2282500;392;;;;;;;;;;;;;;
2.285;2285000;248;;;;;;;;;;;;;;
2.2875;2287500;190;;;;;;;;;;;;;;
2.29;2290000;154;2290198;129.488;-453.557;129.507;389.889;-124.19;389.889;2289751;-38.359;-120.58;-38.359;1533.181;-386.865;1533.181
2.2925;2292500;171;;;;;;;;;;;;;;
2.295;2295000;157;;;;;;;;;;;;;;
2.2975;2297500;185;;;;;;;;;;;;;;
2.3;2300000;157;;;;;;;;;;;;;;
2.3025;2302500;170;;;;;;;;;;;;;;
2.305;2305000;156;;;;;;;;;;;;;;
2.3075;2307500;157;;;;;;;;;;;;;;
2.31;2310000;155;;;;;;;;;;;;;;
2.3125;2312500;16;;;;;;;;;;;;;;
2.315;2315000;298;;;;;;;;;;;;;;
2.3175;2317500;207;;;;;;;;;;;;;;
2.32;2320000;173;2319192;129.663;-454.175;129.681;314.394;-119.293;314.394;2318752;-38.191;-120.858;-38.191;1523.022;-381.959;1523.021
2.3225;2322500;172;;;;;;;;;;;;;;
2.325;2325000;139;;;;;;;;;;;;;;
2.3275;2327500;135;;;;;;;;;;;;;;
2.33;2330000;152;;;;;;;;;;;;;;
2.3325;2332500;160;;;;;;;;;;;;;;
2.335;2335000;174;;;;;;;;;;;;;;
2.3375;2337500;157;;;;;;;;;;;;;;
2.34;2340000;157;;;;;;;;;;;;;;
2.3425;2342500;365;;;;;;;;;;;;;;
2.345;2345000;245;;;;;;;;;;;;;;
2.3475;2347500;185;;;;;;;;;;;;;;
2.35;2350000;151;2349490;129.981;-454.042;129.998;307.424;-120.766;307.424;2349042;-37.923;-120.861;-37.923;1517.745;-382.986;1517.745
2.3525;2352500;170;;;;;;;;;;;;;;
2.355;2355000;172;;;;;;;;;;;;;;
2.3575;2357500;184;;;;;;;;;;;;;;
2.36;2360000;183;;;;;;;;;;;;;;
2.3625;2362500;153;;;;;;;;;;;;;;
2.365;2365000;154;;;;;;;;;;;;;;
2.3675;2367500;154;;;;;;;;;;;;;;
2.37;2370000;137;2371086;129.881;-454.459;129.897;344.553;-123.478;344.553;2370646;-37.863;-121.155;-37.863;1522.358;-383.087;1522.358
2.3725;2372500;397;;;;;;;;;;;;;;
2.375;2375000;256;;;;;;;;;;;;;;
2.3775;2377500;205;;;;;;;;;;;;;;
2.38;2380000;184;;;;;;;;;;;;;;
2.3825;2382500;183;;;;;;;;;;;;;;
2.385;2385000;142;;;;;;;;;;;;;;
2.3875;2387500;138;;;;;;;;;;;;;;
2.39;2390000;159;;;;;;;;;;;;;;
2.3925;2392500;168;;;;;;;;;;;;;;
2.395;2395000;350;;;;;;;;;;;;;;
2.3975;2397500;238;;;;;;;;;;;;;;
2.4;2400000;191;2399926;129.865;-454.807;129.881;354.451;-114.679;354.451;2399473;-37.793;-121.247;-37.793;1510.99;-380.557;1510.99
2.4025;2402500;188;;;;;;;;;;;;;;
2.405;2405000;171;;;;;;;;;;;;;;
2.4075;2407500;139;;;;;;;;;;;;;;
2.41;2410000;138;;;;;;;;;;;;;;
2.4125;2412500;151;;;;;;;;;;;;;;
2.415;2415000;156;;;;;;;;;;;;;;
2.4175;2417500;170;;;;;;;;;;;;;;
2.42;2420000;184;;;;;;;;;;;;;;
2.4225;2422500;2;2423001;129.911;-455.039;129.926;339.353;-120.757;339.353;2422561;-37.917;-121.406;-37.917;1515.941;-361.53;1515.941
2.425;2425000;264;;;;;;;;;;;;;;
2.4275;2427500;200;;;;;;;;;;;;;;
2.43;2430000;173;;;;;;;;;;;;;;
2.4325;2432500;154;;;;;;;;;;;;;;
2.435;2435000;157;;;;;;;;;;;;;;
2.4375;2437500;158;;;;;;;;;;;;;;
2.44;2440000;173;;;;;;;;;;;;;;
2.4425;2442500;152;;;;;;;;;;;;;;
2.445;2445000;139;;;;;;;;;;;;;;
2.4475;2447500;136;;;;;;;;;;;;;;
2.45;2450000;138;;;;;;;;;;;;;;
2.4525;2452500;4;2451989;129.802;-455.125;129.816;343.823;-126.532;343.823;2451541;-37.851;-121.576;-37.851;1521.519;-346.078;1521.519
2.455;2455000;296;;;;;;;;;;;;;;
2.4575;2457500;220;;;;;;;;;;;;;;
2.46;2460000;185;;;;;;;;;;;;;;
2.4625;2462500;158;;;;;;;;;;;;;;
2.465;2465000;168;;;;;;;;;;;;;;
2.4675;2467500;156;;;;;;;;;;;;;;
2.47;2470000;137;;;;;;;;;;;;;;
2.4725;2472500;143;;;;;;;;;;;;;;
2.475;2475000;409;;;;;;;;;;;;;;
2.4775;2477500;265;;;;;;;;;;;;;;
2.48;2480000;204;2480808;129.882;-455.458;129.895;352.444;-121.518;352.444;2480368;-37.721;-121.805;-37.721;1522.88;-334.899;1522.88
2.4825;2482500;170;;;;;;;;;;;;;;
2.485;2485000;153;;;;;;;;;;;;;;
2.4875;2487500;154;;;;;;;;;;;;;;
2.49;2490000;127;;;;;;;;;;;;;;
2.4925;2492500;140;;;;;;;;;;;;;;
2.495;2495000;172;;;;;;;;;;;;;;
2.4975;2497500;184;;;;;;;;;;;;;;
2.5;2500000;183;;;;;;;;;;;;;;
2.5025;2502500;320;;;;;;;;;;;;;;
2.505;2505000;317;;;;;;;;;;;;;;
2.5075;2507500;218;;;;;;;;;;;;;;
2.51;2510000;174;;;;;;;;2510831;-37.525;-121.991;-37.525;1516.736;-324.279;1516.736
2.5125;2512500;171;2511280;129.933;-455.791;129.946;340.072;-115.005;340.072;;;;;;;
2.515;2515000;153;;;;;;;;;;;;;;
2.5175;2517500;157;;;;;;;;;;;;;;
2.52;2520000;156;;;;;;;;;;;;;;
2.5225;2522500;169;;;;;;;;;;;;;;
2.525;2525000;155;;;;;;;;;;;;;;
2.5275;2527500;331;;;;;;;;;;;;;;
2.53;2530000;233;;;;;;;;;;;;;;
2.5325;2532500;190;;;;;;;;;;;;;;
2.535;2535000;184;;;;;;;;;;;;;;
2.5375;2537500;185;;;;;;;;;;;;;;
2.54;2540000;157;;;;;;;;;;;;;;
2.5425;2542500;172;2541734;130.092;-455.907;130.104;325.693;-120.629;325.693;2541294;-37.454;-121.882;-37.454;1522.712;-325.565;1522.712
2.545;2545000;140;;;;;;;;;;;;;;
2.5475;2547500;152;;;;;;;;;;;;;;
2.55;2550000;153;;;;;;;;;;;;;;
2.5525;2552500;142;;;;;;;;;;;;;;
2.555;2555000;0;;;;;;;;;;;;;;
2.5575;2557500;299;;;;;;;;;;;;;;
2.56;2560000;217;;;;;;;;;;;;;;
2.5625;2562500;171;;;;;;;;;;;;;;
2.565;2565000;143;;;;;;;;;;;;;;
2.5675;2567500;156;;;;;;;;;;;;;;
2.57;2570000;136;;;;;;;;;;;;;;
2.5725;2572500;140;2572204;130.144;-455.865;130.156;327.784;-127.723;327.784;2571757;-37.381;-122.089;-37.381;1535.826;-326.349;1535.826
2.575;2575000;156;;;;;;;;;;;;;;
2.5775;2577500;158;;;;;;;;;;;;;;
2.58;2580000;183;;;;;;;;;;;;;;
2.5825;2582500;171;;;;;;;;;;;;;;
2.585;2585000;348;;;;;;;;;;;;;;
2.5875;2587500;219;;;;;;;;;;;;;;
2.59;2590000;169;;;;;;;;;;;;;;
2.5925;2592500;173;;;;;;;;;;;;;;
2.595;2595000;156;;;;;;;;;;;;;;
2.5975;2597500;158;;;;;;;;;;;;;;
2.6;2600000;157;;;;;;;;;;;;;;
2.6025;2602500;153;2602660;130.231;-456.057;130.242;349.02;-131.399;349.02;2602220;-37.287;-122.182;-37.287;1536.91;-319.219;1536.91
2.605;2605000;157;;;;;;;;;;;;;;
2.6075;2607500;137;;;;;;;;;;;;;;
2.61;2610000;139;;;;;;;;;;;;;;
2.6125;2612500;152;;;;;;;;;;;;;;
2.615;2615000;397;;;;;;;;;;;;;;
2.6175;2617500;271;;;;;;;;;;;;;;
2.62;2620000;207;;;;;;;;;;;;;;
2.6225;2622500;170;;;;;;;;;;;;;;
2.625;2625000;150;;;;;;;;;;;;;;
2.6275;2627500;138;;;;;;;;;;;;;;
2.63;2630000;156;;;;;;;;2631221;-37.07;-122.259;-37.07;1521.315;-309.384;1521.315
2.6325;2632500;141;2631668;130.247;-456.415;130.257;342.069;-128.329;342.069;;;;;;;
2.635;2635000;152;;;;;;;;;;;;;;
2.6375;2637500;167;;;;;;;;;;;;;;
2.64;2640000;158;;;;;;;;;;;;;;
2.6425;2642500;153;;;;;;;;;;;;;;
2.645;2645000;156;;;;;;;;;;;;;;
2.6475;2647500;266;;;;;;;;;;;;;;
2.65;2650000;185;;;;;;;;;;;;;;
2.6525;2652500;183;2653265;130.109;-456.506;130.119;352.965;-131.1;352.965;2652825;-36.979;-122.264;-36.979;1530.124;-293.477;1530.124
2.655;2655000;158;;;;;;;;;;;;;;
2.6575;2657500;185;;;;;;;;;;;;;;
2.66;2660000;173;;;;;;;;;;;;;;
2.6625;2662500;170;;;;;;;;;;;;;;
2.665;2665000;156;;;;;;;;;;;;;;
2.6675;2667500;137;;;;;;;;;;;;;;
2.67;2670000;158;;;;;;;;;;;;;;
2.6725;2672500;171;;;;;;;;;;;;;;
2.675;2675000;359;;;;;;;;;;;;;;
2.6775;2677500;331;;;;;;;;;;;;;;
2.68;2680000;247;;;;;;;;;;;;;;
2.6825;2682500;201;2683735;130.112;-456.769;130.121;376.442;-138.545;376.442;2683288;-37.021;-122.385;-37.021;1537.18;-291.053;1537.18
2.685;2685000;144;;;;;;;;;;;;;;
2.6875;2687500;157;;;;;;;;;;;;;;
2.69;2690000;156;;;;;;;;;;;;;;
2.6925;2692500;152;;;;;;;;;;;;;;
2.695;2695000;155;;;;;;;;;;;;;;
2.6975;2697500;184;;;;;;;;;;;;;;
2.7;2700000;185;;;;;;;;;;;;;;
2.7025;2702500;172;;;;;;;;;;;;;;
2.705;2705000;141;;;;;;;;;;;;;;
2.7075;2707500;302;;;;;;;;;;;;;;
2.71;2710000;202;;;;;;;;;;;;;;
2.7125;2712500;170;2712729;129.987;-457.123;129.996;388.682;-124.18;388.682;2712289;-36.854;-122.573;-36.854;1539.071;-296.625;1539.071
2.715;2715000;186;;;;;;;;;;;;;;
2.7175;2717500;160;;;;;;;;;;;;;;
2.72;2720000;183;;;;;;;;;;;;;;
2.7225;2722500;143;;;;;;;;;;;;;;
2.725;2725000;139;;;;;;;;;;;;;;
2.7275;2727500;135;;;;;;;;;;;;;;
2.73;2730000;137;;;;;;;;;;;;;;
2.7325;2732500;160;;;;;;;;;;;;;;
2.735;2735000;315;2734342;130.015;-456.898;130.023;383.248;-121.909;383.248;2733894;-36.713;-122.563;-36.713;1543.493;-299.732;1543.493
2.7375;2737500;285;;;;;;;;;;;;;;
2.74;2740000;216;;;;;;;;;;;;;;
2.7425;2742500;172;;;;;;;;;;;;;;
2.745;2745000;144;;;;;;;;;;;;;;
2.7475;2747500;141;;;;;;;;;;;;;;
2.75;2750000;139;;;;;;;;;;;;;;
2.7525;2752500;141;;;;;;;;;;;;;;
2.755;2755000;154;;;;;;;;;;;;;;
2.7575;2757500;381;;;;;;;;;;;;;;
2.76;2760000;248;;;;;;;;;;;;;;
2.7625;2762500;204;;;;;;;;;;;;;;
2.765;2765000;154;2764710;130.047;-457.258;130.055;407.398;-133.314;407.398;2764270;-36.671;-122.718;-36.671;1560.38;-286.495;1560.38
2.7675;2767500;140;;;;;;;;;;;;;;
2.77;2770000;155;;;;;;;;;;;;;;
2.7725;2772500;168;;;;;;;;;;;;;;
2.775;2775000;157;;;;;;;;;;;;;;
2.7775;2777500;167;;;;;;;;;;;;;;
2.78;2780000;158;;;;;;;;;;;;;;
2.7825;2782500;154;;;;;;;;;;;;;;
2.785;2785000;142;;;;;;;;;;;;;;
2.7875;2787500;398;;;;;;;;;;;;;;
2.79;2790000;238;;;;;;;;;;;;;;
2.7925;2792500;189;2793719;130.115;-457.514;130.122;404.528;-137.585;404.528;2793270;-36.582;-122.773;-36.582;1554.549;-284.858;1554.549
2.795;2795000;191;;;;;;;;;;;;;;
2.7975;2797500;172;;;;;;;;;;;;;;
2.8;2800000;184;;;;;;;;;;;;;;
2.8025;2802500;153;;;;;;;;;;;;;;
2.805;2805000;141;;;;;;;;;;;;;;
2.8075;2807500;156;;;;;;;;;;;;;;
2.81;2810000;138;;;;;;;;;;;;;;
2.8125;2812500;152;;;;;;;;;;;;;;
2.815;2815000;158;2815315;130.252;-457.464;130.259;378.614;-142.956;378.614;2814875;-36.424;-122.838;-36.424;1560.821;-279.802;1560.821
2.8175;2817500;361;;;;;;;;;;;;;;
2.82;2820000;237;;;;;;;;;;;;;;
2.8225;2822500;204;;;;;;;;;;;;;;
2.825;2825000;172;;;;;;;;;;;;;;
2.8275;2827500;139;;;;;;;;;;;;;;
2.83;2830000;158;;;;;;;;;;;;;;
2.8325;2832500;152;;;;;;;;;;;;;;
2.835;2835000;174;;;;;;;;;;;;;;
2.8375;2837500;56;;;;;;;;;;;;;;
2.84;2840000;304;;;;;;;;;;;;;;
2.8425;2842500;220;;;;;;;;;;;;;;
2.845;2845000;184;2845785;130.461;-457.435;130.468;366.246;-143.683;366.246;2845338;-36.396;-123.004;-36.396;1554.53;-267.125;1554.53
2.8475;2847500;159;;;;;;;;;;;;;;
2.85;2850000;157;;;;;;;;;;;;;;
2.8525;2852500;141;;;;;;;;;;;;;;
2.855;2855000;174;;;;;;;;;;;;;;
2.8575;2857500;158;;;;;;;;;;;;;;
2.86;2860000;183;;;;;;;;;;;;;;
2.8625;2862500;153;;;;;;;;;;;;;;
2.865;2865000;157;;;;;;;;;;;;;;
2.8675;2867500;376;;;;;;;;;;;;;;
2.87;2870000;283;;;;;;;;;;;;;;
2.8725;2872500;205;;;;;;;;;;;;;;
2.875;2875000;184;2874779;130.343;-457.5;130.35;398.246;-145.249;398.246;2874339;-36.413;-122.917;-36.413;1559.929;-252.894;1559.929
2.8775;2877500;174;;;;;;;;;;;;;;
2.88;2880000;190;;;;;;;;;;;;;;
2.8825;2882500;155;;;;;;;;;;;;;;
2.885;2885000;143;;;;;;;;;;;;;;
2.8875;2887500;157;;;;;;;;;;;;;;
2.89;2890000;157;;;;;;;;;;;;;;
2.8925;2892500;169;;;;;;;;;;;;;;
2.895;2895000;156;;;;;;;;2895943;-36.367;-122.926;-36.367;1543.62;-251.624;1543.62
2.8975;2897500;411;2896392;130.353;-457.585;130.359;396.272;-140.174;396.272;;;;;;;
2.9;2900000;283;;;;;;;;;;;;;;
2.9025;2902500;216;;;;;;;;;;;;;;
2.905;2905000;159;;;;;;;;;;;;;;
2.9075;2907500;141;;;;;;;;;;;;;;
2.91;2910000;167;;;;;;;;;;;;;;
2.9125;2912500;152;;;;;;;;;;;;;;
2.915;2915000;183;;;;;;;;;;;;;;
2.9175;2917500;169;;;;;;;;;;;;;;
2.92;2920000;333;2920782;130.369;-457.593;130.374;411.458;-141.478;411.458;2920341;-36.36;-123.063;-36.36;1546.064;-239.48;1546.064
2.9225;2922500;249;;;;;;;;;;;;;;
2.925;2925000;169;;;;;;;;;;;;;;
2.9275;2927500;170;;;;;;;;;;;;;;
2.93;2930000;140;;;;;;;;;;;;;;
2.9325;2932500;155;;;;;;;;;;;;;;
2.935;2935000;176;;;;;;;;;;;;;;
2.9375;2937500;168;;;;;;;;;;;;;;
2.94;2940000;184;;;;;;;;;;;;;;
2.9425;2942500;154;;;;;;;;;;;;;;
2.945;2945000;140;;;;;;;;;;;;;;
2.9475;2947500;137;2946822;130.34;-457.534;130.346;400.073;-138.342;400.073;2946375;-36.171;-123.071;-36.171;1537.448;-244.131;1537.448
2.95;2950000;349;;;;;;;;;;;;;;
2.9525;2952500;252;;;;;;;;;;;;;;
2.955;2955000;188;;;;;;;;;;;;;;
2.9575;2957500;175;;;;;;;;;;;;;;
2.96;2960000;188;;;;;;;;;;;;;;
2.9625;2962500;172;;;;;;;;;;;;;;
2.965;2965000;141;;;;;;;;;;;;;;
2.9675;2967500;137;;;;;;;;;;;;;;
2.97;2970000;137;;;;;;;;;;;;;;
2.9725;2972500;158;;;;;;;;;;;;;;
2.975;2975000;156;;;;;;;;;;;;;;
2.9775;2977500;0;2977278;130.43;-457.556;130.435;403.256;-134.487;403.256;2976838;-35.949;-122.907;-35.949;1548.513;-244.175;1548.513
2.98;2980000;313;;;;;;;;;;;;;;
2.9825;2982500;215;;;;;;;;;;;;;;
2.985;2985000;185;;;;;;;;;;;;;;
2.9875;2987500;158;;;;;;;;;;;;;;
2.99;2990000;158;;;;;;;;;;;;;;
2.9925;2992500;170;;;;;;;;;;;;;;
2.995;2995000;183;;;;;;;;;;;;;;
2.9975;2997500;168;;;;;;;;;;;;;;
3.0;3000000;426;;;;;;;;;;;;;;
3.0025;3002500;282;;;;;;;;;;;;;;
3.005;3005000;205;;;;;;;;;;;;;;
3.0075;3007500;173;3007750;130.454;-457.749;130.459;397.094;-139.138;397.094;3007301;-35.993;-122.856;-35.993;1544.15;-235.903;1544.15
3.01;3010000;168;;;;;;;;;;;;;;
3.0125;3012500;152;;;;;;;;;;;;;;
3.015;3015000;157;;;;;;;;;;;;;;
3.0175;3017500;167;;;;;;;;;;;;;;
3.02;3020000;184;;;;;;;;;;;;;;
3.0225;3022500;172;;;;;;;;;;;;;;
3.025;3025000;376;;;;;;;;;;;;;;
3.0275;3027500;239;;;;;;;;;;;;;;
3.03;3030000;187;;;;;;;;;;;;;;
3.0325;3032500;182;;;;;;;;;;;;;;
3.035;3035000;159;;;;;;;;;;;;;;
3.0375;3037500;170;3036742;130.476;-457.773;130.481;410.926;-144.431;410.926;3036302;-35.969;-122.819;-35.969;1542.63;-228.921;1542.63
3.04;3040000;169;;;;;;;;;;;;;;
3.0425;3042500;154;;;;;;;;;;;;;;
3.045;3045000;158;;;;;;;;;;;;;;
3.0475;3047500;139;;;;;;;;;;;;;;
3.05;3050000;335;;;;;;;;;;;;;;
3.0525;3052500;281;;;;;;;;;;;;;;
3.055;3055000;234;;;;;;;;;;;;;;
3.0575;3057500;204;3058355;130.424;-457.814;130.429;399.568;-137.647;399.568;3057906;-35.854;-122.742;-35.854;1534.624;-228.412;1534.624
3.06;3060000;170;;;;;;;;;;;;;;
3.0625;3062500;154;;;;;;;;;;;;;;
3.065;3065000;140;;;;;;;;;;;;;;
3.0675;3067500;156;;;;;;;;;;;;;;
3.07;3070000;156;;;;;;;;;;;;;;
3.0725;3072500;153;;;;;;;;;;;;;;
3.075;3075000;174;;;;;;;;;;;;;;
3.0775;3077500;168;;;;;;;;;;;;;;
3.08;3080000;288;;;;;;;;;;;;;;
3.0825;3082500;297;;;;;;;;;;;;;;
3.085;3085000;200;;;;;;;;;;;;;;
3.0875;3087500;175;;;;;;;;3088369;-35.861;-122.686;-35.861;1534.892;-230.117;1534.892
3.09;3090000;142;3088810;130.546;-457.591;130.55;381.777;-137.327;381.777;;;;;;;
3.0925;3092500;152;;;;;;;;;;;;;;
3.095;3095000;159;;;;;;;;;;;;;;
3.0975;3097500;169;;;;;;;;;;;;;;
3.1;3100000;185;;;;;;;;;;;;;;
3.1025;3102500;154;;;;;;;;;;;;;;
3.105;3105000;142;;;;;;;;;;;;;;
3.1075;3107500;138;;;;;;;;;;;;;;
3.11;3110000;139;;;;;;;;;;;;;;
3.1125;3112500;330;;;;;;;;;;;;;;
3.115;3115000;236;;;;;;;;;;;;;;
3.1175;3117500;192;3117827;130.546;-457.727;130.55;409.5;-144.023;409.5;3117370;-35.861;-122.853;-35.861;1552.648;-226.048;1552.648
3.12;3120000;182;;;;;;;;;;;;;;
3.1225;3122500;156;;;;;;;;;;;;;;
3.125;3125000;168;;;;;;;;;;;;;;
3.1275;3127500;139;;;;;;;;;;;;;;
3.13;3130000;139;;;;;;;;;;;;;;
3.1325;3132500;143;;;;;;;;;;;;;;
3.135;3135000;156;;;;;;;;;;;;;;
3.1375;3137500;187;;;;;;;;;;;;;;
3.14;3140000;406;3139415;130.588;-457.965;130.592;387.275;-141.197;387.275;3138975;-35.715;-122.951;-35.715;1535.828;-226.996;1535.828
3.1425;3142500;278;;;;;;;;;;;;;;
3.145;3145000;190;;;;;;;;;;;;;;
3.1475;3147500;157;;;;;;;;;;;;;;
3.15;3150000;168;;;;;;;;;;;;;;
3.1525;3152500;171;;;;;;;;;;;;;;
3.155;3155000;159;;;;;;;;;;;;;;
3.1575;3157500;169;;;;;;;;;;;;;;
3.16;3160000;169;;;;;;;;;;;;;;
3.1625;3162500;361;;;;;;;;;;;;;;
3.165;3165000;251;;;;;;;;;;;;;;
3.1675;3167500;187;;;;;;;;;;;;;;
3.17;3170000;153;3169891;130.604;-457.924;130.608;393.287;-141.575;393.287;3169438;-35.668;-122.928;-35.668;1544.349;-216.084;1544.349
3.1725;3172500;173;;;;;;;;;;;;;;
3.175;3175000;159;;;;;;;;;;;;;;
3.1775;3177500;168;;;;;;;;;;;;;;
3.18;3180000;187;;;;;;;;;;;;;;
3.1825;3182500;174;;;;;;;;;;;;;;
3.185;3185000;169;;;;;;;;;;;;;;
3.1875;3187500;140;;;;;;;;;;;;;;
3.19;3190000;143;;;;;;;;;;;;;;
3.1925;3192500;414;;;;;;;;;;;;;;
3.195;3195000;295;;;;;;;;;;;;;;
3.1975;3197500;235;;;;;;;;3198438;-35.58;-122.948;-35.58;1547.194;-210.967;1547.194
3.2;3200000;187;3198878;130.656;-458.067;130.659;395.935;-144.996;395.935;;;;;;;
3.2025;3202500;186;;;;;;;;;;;;;;
3.205;3205000;152;;;;;;;;;;;;;;
3.2075;3207500;141;;;;;;;;;;;;;;
3.21;3210000;168;;;;;;;;;;;;;;
3.2125;3212500;155;;;;;;;;;;;;;;
3.215;3215000;159;;;;;;;;;;;;;;
3.2175;3217500;189;;;;;;;;;;;;;;
3.22;3220000;168;;;;;;;;;;;;;;
3.2225;3222500;346;3221973;130.742;-458.057;130.745;393.638;-144.746;393.638;3221526;-35.57;-122.956;-35.57;1550.334;-214.856;1550.334
3.225;3225000;218;;;;;;;;;;;;;;
3.2275;3227500;186;;;;;;;;;;;;;;
3.23;3230000;168;;;;;;;;;;;;;;
3.2325;3232500;173;;;;;;;;;;;;;;
3.235;3235000;185;;;;;;;;;;;;;;
3.2375;3237500;168;;;;;;;;;;;;;;
3.24;3240000;186;;;;;;;;;;;;;;
3.2425;3242500;320;;;;;;;;;;;;;;
3.245;3245000;264;;;;;;;;;;;;;;
3.2475;3247500;204;;;;;;;;;;;;;;
3.25;3250000;154;3250946;130.738;-458.231;130.741;405.019;-145.384;405.019;3250506;-35.518;-123.0;-35.518;1557.255;-211.551;1557.255
3.2525;3252500;174;;;;;;;;;;;;;;
3.255;3255000;167;;;;;;;;;;;;;;
3.2575;3257500;170;;;;;;;;;;;;;;
3.26;3260000;169;;;;;;;;;;;;;;
3.2625;3262500;155;;;;;;;;;;;;;;
3.265;3265000;159;;;;;;;;;;;;;;
3.2675;3267500;138;;;;;;;;;;;;;;
3.27;3270000;157;;;;;;;;;;;;;;
3.2725;3272500;317;;;;;;;;;;;;;;
3.275;3275000;315;;;;;;;;;;;;;;
3.2775;3277500;234;;;;;;;;;;;;;;
3.28;3280000;188;3279962;130.795;-458.292;130.798;400.518;-145.115;400.518;3279507;-35.651;-122.913;-35.651;1559.017;-204.036;1559.017
3.2825;3282500;185;;;;;;;;;;;;;;
3.285;3285000;151;;;;;;;;;;;;;;
3.2875;3287500;139;;;;;;;;;;;;;;
3.29;3290000;158;;;;;;;;;;;;;;
3.2925;3292500;171;;;;;;;;;;;;;;
3.295;3295000;176;;;;;;;;;;;;;;
3.2975;3297500;168;;;;;;;;;;;;;;
3.3;3300000;167;;;;;;;;;;;;;;
3.3025;3302500;413;;;;;;;;;;;;;;
3.305;3305000;251;;;;;;;;;;;;;;
3.3075;3307500;175;;;;;;;;;;;;;;
3.31;3310000;154;3310236;131.014;-458.374;131.017;403.679;-143.984;403.679;3309796;-35.619;-122.898;-35.619;1562.004;-202.146;1562.004
3.3125;3312500;154;;;;;;;;;;;;;;
3.315;3315000;174;;;;;;;;;;;;;;
3.3175;3317500;158;;;;;;;;;;;;;;
3.32;3320000;158;;;;;;;;;;;;;;
3.3225;3322500;153;;;;;;;;;;;;;;
3.325;3325000;315;;;;;;;;;;;;;;
3.3275;3327500;297;;;;;;;;;;;;;;
3.33;3330000;190;;;;;;;;;;;;;;
3.3325;3332500;173;;;;;;;;;;;;;;
3.335;3335000;189;;;;;;;;;;;;;;
3.3375;3337500;188;;;;;;;;;;;;;;
3.34;3340000;160;3340708;131.045;-458.452;131.048;401.87;-144.222;401.87;3340259;-35.632;-122.859;-35.632;1563.966;-204.289;1563.966
3.3425;3342500;171;;;;;;;;;;;;;;
3.345;3345000;140;;;;;;;;;;;;;;
3.3475;3347500;137;;;;;;;;;;;;;;
3.35;3350000;158;;;;;;;;;;;;;;
3.3525;3352500;153;;;;;;;;;;;;;;
3.355;3355000;398;;;;;;;;;;;;;;
3.3575;3357500;266;;;;;;;;;;;;;;
3.36;3360000;222;;;;;;;;;;;;;;
3.3625;3362500;188;;;;;;;;;;;;;;
3.365;3365000;152;;;;;;;;;;;;;;
3.3675;3367500;159;;;;;;;;;;;;;;
3.37;3370000;159;3371162;131.014;-458.545;131.016;399.277;-141.824;399.277;3370722;-35.564;-122.798;-35.564;1561.018;-203.262;1561.018
3.3725;3372500;171;;;;;;;;;;;;;;
3.375;3375000;184;;;;;;;;;;;;;;
3.3775;3377500;169;;;;;;;;;;;;;;
3.38;3380000;167;;;;;;;;;;;;;;
3.3825;3382500;0;;;;;;;;;;;;;;
3.385;3385000;327;;;;;;;;;;;;;;
3.3875;3387500;220;;;;;;;;;;;;;;
3.39;3390000;159;;;;;;;;;;;;;;
3.3925;3392500;174;;;;;;;;;;;;;;
3.395;3395000;186;;;;;;;;;;;;;;
3.3975;3397500;185;;;;;;;;;;;;;;
3.4;3400000;184;;;;;;;;3401185;-35.433;-122.88;-35.433;1563.467;-197.037;1563.467
3.4025;3402500;154;3401632;130.923;-458.664;130.925;409.501;-143.482;409.501;;;;;;;
3.405;3405000;149;;;;;;;;;;;;;;
3.4075;3407500;156;;;;;;;;;;;;;;
3.41;3410000;137;;;;;;;;;;;;;;
3.4125;3412500;171;;;;;;;;;;;;;;
3.415;3415000;334;;;;;;;;;;;;;;
3.4175;3417500;239;;;;;;;;;;;;;;
3.42;3420000;190;;;;;;;;;;;;;;
3.4225;3422500;158;;;;;;;;;;;;;;
3.425;3425000;142;;;;;;;;;;;;;;
3.4275;3427500;137;;;;;;;;;;;;;;
3.43;3430000;157;3430626;130.873;-458.569;130.876;406.963;-145.058;406.963;3430186;-35.406;-123.001;-35.406;1564.919;-199.435;1564.919
3.4325;3432500;153;;;;;;;;;;;;;;
3.435;3435000;155;;;;;;;;;;;;;;
3.4375;3437500;160;;;;;;;;;;;;;;
3.44;3440000;160;;;;;;;;;;;;;;
3.4425;3442500;156;;;;;;;;;;;;;;
3.445;3445000;346;;;;;;;;;;;;;;
3.4475;3447500;220;;;;;;;;;;;;;;
3.45;3450000;169;;;;;;;;;;;;;;
3.4525;3452500;158;3452238;130.875;-458.631;130.877;407.615;-145.68;407.615;3451791;-35.319;-123.115;-35.319;1574.61;-197.775;1574.61
3.455;3455000;184;;;;;;;;;;;;;;
3.4575;3457500;167;;;;;;;;;;;;;;
3.46;3460000;169;;;;;;;;;;;;;;
3.4625;3462500;154;;;;;;;;;;;;;;
3.465;3465000;143;;;;;;;;;;;;;;
3.4675;3467500;157;;;;;;;;;;;;;;
3.47;3470000;159;;;;;;;;;;;;;;
3.4725;3472500;154;;;;;;;;;;;;;;
3.475;3475000;391;;;;;;;;;;;;;;
3.4775;3477500;268;;;;;;;;;;;;;;
3.48;3480000;232;;;;;;;;;;;;;;
3.4825;3482500;170;3482520;130.98;-458.746;130.982;404.297;-147.584;404.297;3482080;-35.292;-123.108;-35.292;1570.255;-194.449;1570.255
3.485;3485000;151;;;;;;;;;;;;;;
3.4875;3487500;139;;;;;;;;;;;;;;
3.49;3490000;141;;;;;;;;;;;;;;
3.4925;3492500;168;;;;;;;;;;;;;;
3.495;3495000;156;;;;;;;;;;;;;;
3.4975;3497500;167;;;;;;;;;;;;;;
3.5;3500000;168;;;;;;;;;;;;;;
3.5025;3502500;154;;;;;;;;;;;;;;
3.505;3505000;379;;;;;;;;;;;;;;
3.5075;3507500;251;;;;;;;;;;;;;;
3.51;3510000;184;;;;;;;;3510907;-35.309;-123.029;-35.309;1570.929;-194.789;1570.929
3.5125;3512500;186;3511356;130.873;-458.714;130.875;412.082;-147.205;412.082;;;;;;;
3.515;3515000;185;;;;;;;;;;;;;;
3.5175;3517500;167;;;;;;;;;;;;;;
3.52;3520000;176;;;;;;;;;;;;;;
3.5225;3522500;153;;;;;;;;;;;;;;
3.525;3525000;141;;;;;;;;;;;;;;
3.5275;3527500;155;;;;;;;;;;;;;;
3.53;3530000;138;;;;;;;;;;;;;;
3.5325;3532500;152;3532952;130.984;-458.757;130.986;406.79;-145.969;406.79;3532512;-35.318;-123.093;-35.318;1566.758;-197.737;1566.758
3.535;3535000;380;;;;;;;;;;;;;;
3.5375;3537500;250;;;;;;;;;;;;;;
3.54;3540000;217;;;;;;;;;;;;;;
3.5425;3542500;168;;;;;;;;;;;;;;
3.545;3545000;170;;;;;;;;;;;;;;
3.5475;3547500;156;;;;;;;;;;;;;;
3.55;3550000;157;;;;;;;;;;;;;;
3.5525;3552500;169;;;;;;;;;;;;;;
3.555;3555000;7;;;;;;;;;;;;;;
3.5575;3557500;331;;;;;;;;;;;;;;
3.56;3560000;248;;;;;;;;;;;;;;
3.5625;3562500;173;3563422;131.102;-458.548;131.104;414.013;-144.796;414.013;3562975;-35.401;-123.081;-35.401;1568.045;-192.225;1568.045
3.565;3565000;169;;;;;;;;;;;;;;
3.5675;3567500;141;;;;;;;;;;;;;;
3.57;3570000;157;;;;;;;;;;;;;;
3.5725;3572500;171;;;;;;;;;;;;;;
3.575;3575000;158;;;;;;;;;;;;;;
3.5775;3577500;184;;;;;;;;;;;;;;
3.58;3580000;183;;;;;;;;;;;;;;
3.5825;3582500;171;;;;;;;;;;;;;;
3.585;3585000;0;;;;;;;;;;;;;;
3.5875;3587500;319;;;;;;;;;;;;;;
3.59;3590000;220;;;;;;;;;;;;;;
3.5925;3592500;174;3592416;131.147;-458.648;131.149;415.625;-146.306;415.625;3591976;-35.406;-123.204;-35.406;1567.955;-188.302;1567.955
3.595;3595000;187;;;;;;;;;;;;;;
3.5975;3597500;168;;;;;;;;;;;;;;
3.6;3600000;158;;;;;;;;;;;;;;
3.6025;3602500;153;;;;;;;;;;;;;;
3.605;3605000;141;;;;;;;;;;;;;;
3.6075;3607500;138;;;;;;;;;;;;;;
3.61;3610000;139;;;;;;;;;;;;;;
3.6125;3612500;151;;;;;;;;3613580;-35.362;-123.18;-35.362;1566.558;-183.262;1566.558
3.615;3615000;400;3614029;131.148;-458.676;131.149;413.656;-145.991;413.656;;;;;;;
3.6175;3617500;279;;;;;;;;;;;;;;
3.62;3620000;230;;;;;;;;;;;;;;
3.6225;3622500;169;;;;;;;;;;;;;;
3.625;3625000;142;;;;;;;;;;;;;;
3.6275;3627500;139;;;;;;;;;;;;;;
3.63;3630000;140;;;;;;;;;;;;;;
3.6325;3632500;170;;;;;;;;;;;;;;
3.635;3635000;158;;;;;;;;;;;;;;
3.6375;3637500;366;;;;;;;;;;;;;;
3.64;3640000;239;;;;;;;;;;;;;;
3.6425;3642500;184;;;;;;;;;;;;;;
3.645;3645000;153;3644396;131.209;-458.696;131.21;416.161;-146.566;416.161;3643956;-35.375;-123.286;-35.375;1569.167;-181.536;1569.167
3.6475;3647500;167;;;;;;;;;;;;;;
3.65;3650000;158;;;;;;;;;;;;;;
3.6525;3652500;153;;;;;;;;;;;;;;
3.655;3655000;157;;;;;;;;;;;;;;
3.6575;3657500;184;;;;;;;;;;;;;;
3.66;3660000;159;;;;;;;;;;;;;;
3.6625;3662500;171;;;;;;;;;;;;;;
3.665;3665000;141;;;;;;;;;;;;;;
3.6675;3667500;360;;;;;;;;;;;;;;
3.67;3670000;251;;;;;;;;;;;;;;
3.6725;3672500;185;3673325;131.218;-458.697;131.219;415.04;-147.113;415.04;3672870;-35.399;-123.264;-35.399;1567.709;-185.147;1567.709
3.675;3675000;171;;;;;;;;;;;;;;
3.6775;3677500;168;;;;;;;;;;;;;;
3.68;3680000;159;;;;;;;;;;;;;;
3.6825;3682500;154;;;;;;;;;;;;;;
3.685;3685000;157;;;;;;;;;;;;;;
3.6875;3687500;137;;;;;;;;;;;;;;
3.69;3690000;157;;;;;;;;;;;;;;
3.6925;3692500;169;;;;;;;;;;;;;;
3.695;3695000;313;3694915;131.306;-458.729;131.307;417.913;-146.757;417.913;3694474;-35.374;-123.25;-35.374;1558.886;-188.577;1558.886
3.6975;3697500;336;;;;;;;;;;;;;;
3.7;3700000;248;;;;;;;;;;;;;;
3.7025;3702500;200;;;;;;;;;;;;;;
3.705;3705000;168;;;;;;;;;;;;;;
3.7075;3707500;139;;;;;;;;;;;;;;
3.71;3710000;142;;;;;;;;;;;;;;
3.7125;3712500;154;;;;;;;;;;;;;;
3.715;3715000;184;;;;;;;;;;;;;;
3.7175;3717500;62;;;;;;;;;;;;;;
3.72;3720000;280;3719319;131.085;-458.729;131.086;416.268;-145.107;416.268;3718870;-35.313;-123.248;-35.313;1562.317;-183.96;1562.317
3.7225;3722500;216;;;;;;;;;;;;;;
3.725;3725000;173;;;;;;;;;;;;;;
3.7275;3727500;158;;;;;;;;;;;;;;
3.73;3730000;166;;;;;;;;;;;;;;
3.7325;3732500;152;;;;;;;;;;;;;;
3.735;3735000;158;;;;;;;;;;;;;;
3.7375;3737500;183;;;;;;;;;;;;;;
3.74;3740000;167;;;;;;;;;;;;;;
3.7425;3742500;172;;;;;;;;;;;;;;
3.745;3745000;142;3745346;131.118;-458.679;131.12;413.392;-145.727;413.392;3744906;-35.341;-123.088;-35.341;1562.951;-180.45;1562.951
3.7475;3747500;27;;;;;;;;;;;;;;
3.75;3750000;269;;;;;;;;;;;;;;
3.7525;3752500;203;;;;;;;;;;;;;;
3.755;3755000;200;;;;;;;;;;;;;;
3.7575;3757500;172;;;;;;;;;;;;;;
3.76;3760000;185;;;;;;;;;;;;;;
3.7625;3762500;153;;;;;;;;;;;;;;
3.765;3765000;139;;;;;;;;;;;;;;
3.7675;3767500;154;;;;;;;;;;;;;;
3.77;3770000;139;;;;;;;;;;;;;;
3.7725;3772500;172;;;;;;;;;;;;;;
3.775;3775000;183;3775816;131.144;-458.663;131.146;413.285;-146.315;413.285;3775369;-35.386;-122.979;-35.386;1564.428;-183.677;1564.428
3.7775;3777500;374;;;;;;;;;;;;;;
3.78;3780000;252;;;;;;;;;;;;;;
3.7825;3782500;187;;;;;;;;;;;;;;
3.785;3785000;173;;;;;;;;;;;;;;
3.7875;3787500;140;;;;;;;;;;;;;;
3.79;3790000;138;;;;;;;;;;;;;;
3.7925;3792500;152;;;;;;;;;;;;;;
3.795;3795000;157;;;;;;;;;;;;;;
3.7975;3797500;4;;;;;;;;;;;;;;
3.8;3800000;313;;;;;;;;;;;;;;
3.8025;3802500;214;;;;;;;;;;;;;;
3.805;3805000;159;;;;;;;;3805832;-35.398;-122.967;-35.398;1563.644;-185.431;1563.644
3.8075;3807500;150;3806272;131.102;-458.623;131.103;416.683;-142.499;416.683;;;;;;;
3.81;3810000;167;;;;;;;;;;;;;;
3.8125;3812500;173;;;;;;;;;;;;;;
3.815;3815000;158;;;;;;;;;;;;;;
3.8175;3817500;169;;;;;;;;;;;;;;
3.82;3820000;158;;;;;;;;;;;;;;
3.8225;3822500;382;;;;;;;;;;;;;;
3.825;3825000;266;;;;;;;;;;;;;;
3.8275;3827500;205;;;;;;;;;;;;;;
3.83;3830000;158;;;;;;;;;;;;;;
3.8325;3832500;155;;;;;;;;;;;;;;
3.835;3835000;185;3835282;131.147;-458.585;131.148;415.099;-142.812;415.099;3834833;-35.354;-122.979;-35.354;1564.649;-184.91;1564.649
3.8375;3837500;169;;;;;;;;;;;;;;
3.84;3840000;169;;;;;;;;;;;;;;
3.8425;3842500;154;;;;;;;;;;;;;;
3.845;3845000;141;;;;;;;;;;;;;;
3.8475;3847500;156;;;;;;;;;;;;;;
3.85;3850000;329;;;;;;;;;;;;;;
3.8525;3852500;232;;;;;;;;;;;;;;
3.855;3855000;187;;;;;;;;;;;;;;
3.8575;3857500;190;3856878;131.263;-458.61;131.264;414.469;-144.421;414.469;3856438;-35.178;-122.912;-35.178;1561.229;-187.039;1561.229
3.86;3860000;167;;;;;;;;;;;;;;
3.8625;3862500;152;;;;;;;;;;;;;;
3.865;3865000;140;;;;;;;;;;;;;;
3.8675;3867500;157;;;;;;;;;;;;;;
3.87;3870000;158;;;;;;;;;;;;;;
3.8725;3872500;153;;;;;;;;;;;;;;
3.875;3875000;184;;;;;;;;;;;;;;
3.8775;3877500;185;;;;;;;;;;;;;;
3.88;3880000;381;;;;;;;;;;;;;;
3.8825;3882500;253;;;;;;;;;;;;;;
3.885;3885000;189;;;;;;;;;;;;;;
3.8875;3887500;170;3887349;131.306;-458.707;131.307;418.683;-145.075;418.683;3886901;-35.292;-122.952;-35.292;1561.043;-183.375;1561.043
3.89;3890000;160;;;;;;;;;;;;;;
3.8925;3892500;154;;;;;;;;;;;;;;
3.895;3895000;182;;;;;;;;;;;;;;
3.8975;3897500;167;;;;;;;;;;;;;;
3.9;3900000;184;;;;;;;;;;;;;;
3.9025;3902500;152;;;;;;;;;;;;;;
3.905;3905000;157;;;;;;;;;;;;;;
3.9075;3907500;157;;;;;;;;;;;;;;
3.91;3910000;390;;;;;;;;;;;;;;
3.9125;3912500;254;;;;;;;;;;;;;;
3.915;3915000;204;;;;;;;;3915901;-35.303;-122.935;-35.303;1562.178;-187.331;1562.178
3.9175;3917500;184;3916341;131.317;-458.629;131.318;423.561;-144.384;423.561;;;;;;;
3.92;3920000;189;;;;;;;;;;;;;;
3.9225;3922500;153;;;;;;;;;;;;;;
3.925;3925000;141;;;;;;;;;;;;;;
3.9275;3927500;155;;;;;;;;;;;;;;
3.93;3930000;157;;;;;;;;;;;;;;
3.9325;3932500;171;;;;;;;;;;;;;;
3.935;3935000;159;;;;;;;;;;;;;;
3.9375;3937500;186;3937955;131.315;-458.554;131.315;418.571;-145.477;418.571;3937506;-35.441;-122.974;-35.441;1560.194;-189.339;1560.194
3.94;3940000;350;;;;;;;;;;;;;;
3.9425;3942500;222;;;;;;;;;;;;;;
3.945;3945000;170;;;;;;;;;;;;;;
3.9475;3947500;151;;;;;;;;;;;;;;
3.95;3950000;167;;;;;;;;;;;;;;
3.9525;3952500;154;;;;;;;;;;;;;;
3.955;3955000;159;;;;;;;;;;;;;;
3.9575;3957500;168;;;;;;;;;;;;;;
3.96;3960000;317;;;;;;;;;;;;;;
3.9625;3962500;297;;;;;;;;;;;;;;
3.965;3965000;188;;;;;;;;;;;;;;
3.9675;3967500;155;3968409;131.386;-458.532;131.386;424.767;-147.391;424.767;3967969;-35.517;-122.937;-35.517;1559.185;-185.997;1559.185
3.97;3970000;142;;;;;;;;;;;;;;
3.9725;3972500;152;;;;;;;;;;;;;;
3.975;3975000;185;;;;;;;;;;;;;;
3.9775;3977500;186;;;;;;;;;;;;;;
3.98;3980000;167;;;;;;;;;;;;;;
3.9825;3982500;154;;;;;;;;;;;;;;
3.985;3985000;139;;;;;;;;;;;;;;
3.9875;3987500;137;;;;;;;;;;;;;;
3.99;3990000;138;;;;;;;;;;;;;;
3.9925;3992500;302;;;;;;;;;;;;;;
3.995;3995000;222;;;;;;;;;;;;;;
3.9975;3997500;188;3997419;131.392;-458.694;131.393;426.279;-147.896;426.279;3996970;-35.583;-122.982;-35.583;1555.6;-181.51;1555.6
4.0;4000000;188;;;;;;;;;;;;;;
4.0025;4002500;154;;;;;;;;;;;;;;
4.005;4005000;141;;;;;;;;;;;;;;
4.0075;4007500;141;;;;;;;;;;;;;;
4.01;4010000;142;;;;;;;;;;;;;;
4.0125;4012500;169;;;;;;;;;;;;;;
4.015;4015000;183;;;;;;;;;;;;;;
4.0175;4017500;168;;;;;;;;4018574;-35.61;-123.024;-35.61;1562.258;-182.059;1562.258
4.02;4020000;397;4019014;131.38;-458.689;131.381;426.402;-150.564;426.402;;;;;;;
4.0225;4022500;255;;;;;;;;;;;;;;
4.025;4025000;202;;;;;;;;;;;;;;
4.0275;4027500;153;;;;;;;;;;;;;;
4.03;4030000;168;;;;;;;;;;;;;;
4.0325;4032500;173;;;;;;;;;;;;;;
4.035;4035000;185;;;;;;;;;;;;;;
4.0375;4037500;171;;;;;;;;;;;;;;
4.04;4040000;187;;;;;;;;;;;;;;
4.0425;4042500;333;;;;;;;;;;;;;;
4.045;4045000;218;;;;;;;;;;;;;;
4.0475;4047500;185;;;;;;;;;;;;;;
4.05;4050000;171;4049312;131.338;-458.672;131.339;437.02;-150.473;437.02;4048863;-35.501;-123.113;-35.501;1565.958;-180.394;1565.958
4.0525;4052500;157;;;;;;;;;;;;;;
4.055;4055000;168;;;;;;;;;;;;;;
4.0575;4057500;169;;;;;;;;;;;;;;
4.06;4060000;185;;;;;;;;;;;;;;
4.0625;4062500;154;;;;;;;;;;;;;;
4.065;4065000;159;;;;;;;;;;;;;;
4.0675;4067500;155;;;;;;;;;;;;;;
4.07;4070000;139;;;;;;;;;;;;;;
4.0725;4072500;392;;;;;;;;;;;;;;
4.075;4075000;254;;;;;;;;;;;;;;
4.0775;4077500;204;4078305;131.323;-458.742;131.323;429.169;-151.7;429.169;4077864;-35.397;-123.094;-35.397;1563.347;-179.687;1563.347
4.08;4080000;174;;;;;;;;;;;;;;
4.0825;4082500;156;;;;;;;;;;;;;;
4.085;4085000;160;;;;;;;;;;;;;;
4.0875;4087500;139;;;;;;;;;;;;;;
4.09;4090000;157;;;;;;;;;;;;;;
4.0925;4092500;154;;;;;;;;;;;;;;
4.095;4095000;160;;;;;;;;;;;;;;
4.0975;4097500;186;;;;;;;;;;;;;;
4.1;4100000;319;;;;;;;;;;;;;;
4.1025;4102500;328;;;;;;;;;;;;;;
4.105;4105000;220;;;;;;;;;;;;;;
4.1075;4107500;176;;;;;;;;4108327;-35.457;-123.259;-35.457;1561.742;-178.14;1561.742
4.11;4110000;171;4108775;131.369;-458.887;131.369;424.773;-153.302;424.773;;;;;;;
4.1125;4112500;155;;;;;;;;;;;;;;
4.115;4115000;167;;;;;;;;;;;;;;
4.1175;4117500;168;;;;;;;;;;;;;;
4.12;4120000;183;;;;;;;;;;;;;;
4.1225;4122500;5;;;;;;;;;;;;;;
4.125;4125000;252;;;;;;;;;;;;;;
4.1275;4127500;203;;;;;;;;;;;;;;
4.13;4130000;157;;;;;;;;;;;;;;
4.1325;4132500;157;;;;;;;;;;;;;;
4.135;4135000;166;;;;;;;;;;;;;;
4.1375;4137500;169;;;;;;;;;;;;;;
4.14;4140000;186;4139231;131.205;-458.903;131.206;428.472;-149.575;428.472;4138790;-35.545;-123.251;-35.545;1563.28;-183.233;1563.28
4.1425;4142500;154;;;;;;;;;;;;;;
4.145;4145000;158;;;;;;;;;;;;;;
4.1475;4147500;139;;;;;;;;;;;;;;
4.15;4150000;140;;;;;;;;;;;;;;
4.1525;4152500;381;;;;;;;;;;;;;;
4.155;4155000;296;;;;;;;;;;;;;;
4.1575;4157500;220;;;;;;;;;;;;;;
4.16;4160000;186;;;;;;;;;;;;;;
4.1625;4162500;166;;;;;;;;;;;;;;
4.165;4165000;169;;;;;;;;;;;;;;
4.1675;4167500;141;;;;;;;;;;;;;;
4.17;4170000;166;4169621;131.203;-458.967;131.203;424.548;-151.283;424.548;4169167;-35.488;-123.237;-35.488;1564.304;-185.446;1564.304
4.1725;4172500;154;;;;;;;;;;;;;;
4.175;4175000;159;;;;;;;;;;;;;;
4.1775;4177500;187;;;;;;;;;;;;;;
4.18;4180000;159;;;;;;;;;;;;;;
4.1825;4182500;360;;;;;;;;;;;;;;
4.185;4185000;232;;;;;;;;;;;;;;
4.1875;4187500;169;;;;;;;;;;;;;;
4.19;4190000;172;;;;;;;;;;;;;;
4.1925;4192500;156;;;;;;;;;;;;;;
4.195;4195000;168;;;;;;;;;;;;;;
4.1975;4197500;171;;;;;;;;;;;;;;
4.2;4200000;169;4199903;131.304;-458.918;131.304;430.446;-150.282;430.446;4199456;-35.458;-123.2;-35.458;1559.151;-183.612;1559.151
4.2025;4202500;171;;;;;;;;;;;;;;
4.205;4205000;156;;;;;;;;;;;;;;
4.2075;4207500;155;;;;;;;;;;;;;;
4.21;4210000;158;;;;;;;;;;;;;;
4.2125;4212500;414;;;;;;;;;;;;;;
4.215;4215000;288;;;;;;;;;;;;;;
4.2175;4217500;232;;;;;;;;;;;;;;
4.22;4220000;201;;;;;;;;;;;;;;
4.2225;4222500;156;;;;;;;;;;;;;;
4.225;4225000;158;;;;;;;;;;;;;;
4.2275;4227500;138;;;;;;;;4228457;-35.405;-123.274;-35.405;1553.381;-180.118;1553.381
4.23;4230000;169;4228904;131.326;-458.914;131.327;433.423;-149.768;433.423;;;;;;;
4.2325;4232500;151;;;;;;;;;;;;;;
4.235;4235000;184;;;;;;;;;;;;;;
4.2375;4237500;186;;;;;;;;;;;;;;
4.24;4240000;158;;;;;;;;;;;;;;
4.2425;4242500;30;;;;;;;;;;;;;;
4.245;4245000;281;;;;;;;;;;;;;;
4.2475;4247500;176;;;;;;;;;;;;;;
4.25;4250000;173;4250502;131.257;-458.905;131.257;433.19;-147.092;433.19;4250063;-35.337;-123.351;-35.337;1555.337;-178.113;1555.337
4.2525;4252500;155;;;;;;;;;;;;;;
4.255;4255000;184;;;;;;;;;;;;;;
4.2575;4257500;186;;;;;;;;;;;;;;
4.26;4260000;167;;;;;;;;;;;;;;
4.2625;4262500;170;;;;;;;;;;;;;;
4.265;4265000;141;;;;;;;;;;;;;;
4.2675;4267500;154;;;;;;;;;;;;;;
4.27;4270000;157;;;;;;;;;;;;;;
4.2725;4272500;0;;;;;;;;;;;;;;
4.275;4275000;329;;;;;;;;;;;;;;
4.2775;4277500;222;;;;;;;;;;;;;;
4.28;4280000;186;4280980;131.257;-458.895;131.258;434.718;-147.175;434.718;4280524;-35.327;-123.265;-35.327;1560.257;-179.707;1560.257
4.2825;4282500;158;;;;;;;;;;;;;;
4.285;4285000;166;;;;;;;;;;;;;;
4.2875;4287500;157;;;;;;;;;;;;;;
4.29;4290000;139;;;;;;;;;;;;;;
4.2925;4292500;172;;;;;;;;;;;;;;
4.295;4295000;157;;;;;;;;;;;;;;
4.2975;4297500;184;;;;;;;;;;;;;;
4.3;4300000;167;;;;;;;;;;;;;;
4.3025;4302500;319;;;;;;;;;;;;;;
4.305;4305000;315;;;;;;;;;;;;;;
4.3075;4307500;200;;;;;;;;;;;;;;
4.31;4310000;160;4309971;131.246;-458.856;131.246;429.607;-145.941;429.607;4309525;-35.287;-123.238;-35.287;1556.62;-179.909;1556.62
4.3125;4312500;158;;;;;;;;;;;;;;
4.315;4315000;167;;;;;;;;;;;;;;
4.3175;4317500;188;;;;;;;;;;;;;;
4.32;4320000;156;;;;;;;;;;;;;;
4.3225;4322500;171;;;;;;;;;;;;;;
4.325;4325000;140;;;;;;;;;;;;;;
4.3275;4327500;137;;;;;;;;;;;;;;
4.33;4330000;158;;;;;;;;4330956;-35.353;-123.225;-35.353;1557.539;-175.289;1557.539
4.3325;4332500;408;4331403;131.144;-458.685;131.144;433.064;-146.519;433.064;;;;;;;
4.335;4335000;280;;;;;;;;;;;;;;
4.3375;4337500;215;;;;;;;;;;;;;;
4.34;4340000;176;;;;;;;;;;;;;;
4.3425;4342500;157;;;;;;;;;;;;;;
4.345;4345000;165;;;;;;;;;;;;;;
4.3475;4347500;156;;;;;;;;;;;;;;
4.35;4350000;138;;;;;;;;;;;;;;
4.3525;4352500;152;;;;;;;;;;;;;;
4.355;4355000;348;;;;;;;;;;;;;;
4.3575;4357500;251;;;;;;;;;;;;;;
4.36;4360000;218;;;;;;;;;;;;;;
4.3625;4362500;166;4361859;131.028;-458.869;131.028;437.661;-145.755;437.661;4361419;-35.403;-123.243;-35.403;1561.912;-178.337;1561.912
4.365;4365000;142;;;;;;;;;;;;;;
4.3675;4367500;156;;;;;;;;;;;;;;
4.37;4370000;139;;;;;;;;;;;;;;
4.3725;4372500;143;;;;;;;;;;;;;;
4.375;4375000;158;;;;;;;;;;;;;;
4.3775;4377500;185;;;;;;;;;;;;;;
4.38;4380000;168;;;;;;;;;;;;;;
4.3825;4382500;144;;;;;;;;;;;;;;
4.385;4385000;364;;;;;;;;;;;;;;
4.3875;4387500;252;;;;;;;;;;;;;;
4.39;4390000;201;4390693;131.065;-459.124;131.065;414.465;-142.405;414.465;4390246;-35.456;-123.364;-35.456;1555.129;-189.982;1555.129
4.3925;4392500;167;;;;;;;;;;;;;;
4.395;4395000;187;;;;;;;;;;;;;;
4.3975;4397500;169;;;;;;;;;;;;;;
4.4;4400000;184;;;;;;;;;;;;;;
4.4025;4402500;172;;;;;;;;;;;;;;
4.405;4405000;141;;;;;;;;;;;;;;
4.4075;4407500;139;;;;;;;;;;;;;;
4.41;4410000;159;;;;;;;;;;;;;;
4.4125;4412500;0;4412291;131.069;-458.915;131.069;429.617;-147.972;429.617;4411851;-35.398;-123.351;-35.398;1551.31;-187.483;1551.31
4.415;4415000;344;;;;;;;;;;;;;;
4.4175;4417500;233;;;;;;;;;;;;;;
4.42;4420000;189;;;;;;;;;;;;;;
4.4225;4422500;170;;;;;;;;;;;;;;
4.425;4425000;153;;;;;;;;;;;;;;
4.4275;4427500;158;;;;;;;;;;;;;;
4.43;4430000;143;;;;;;;;;;;;;;
4.4325;4432500;174;;;;;;;;;;;;;;
4.435;4435000;425;;;;;;;;;;;;;;
4.4375;4437500;295;;;;;;;;;;;;;;
4.44;4440000;224;;;;;;;;;;;;;;
4.4425;4442500;170;4442761;130.988;-458.984;130.988;440.074;-146.699;440.074;4442314;-35.44;-123.436;-35.44;1541.119;-176.797;1541.119
4.445;4445000;152;;;;;;;;;;;;;;
4.4475;4447500;167;;;;;;;;;;;;;;
4.45;4450000;159;;;;;;;;;;;;;;
4.4525;4452500;170;;;;;;;;;;;;;;
4.455;4455000;157;;;;;;;;;;;;;;
4.4575;4457500;168;;;;;;;;;;;;;;
4.46;4460000;158;;;;;;;;;;;;;;
4.4625;4462500;153;;;;;;;;;;;;;;
4.465;4465000;0;;;;;;;;;;;;;;
4.4675;4467500;269;;;;;;;;;;;;;;
4.47;4470000;215;;;;;;;;;;;;;;
4.4725;4472500;188;4471755;130.892;-459.16;130.892;441.695;-145.489;441.695;4471315;-35.479;-123.394;-35.479;1543.688;-183.269;1543.688
4.475;4475000;189;;;;;;;;;;;;;;
4.4775;4477500;169;;;;;;;;;;;;;;
4.48;4480000;166;;;;;;;;;;;;;;
4.4825;4482500;173;;;;;;;;;;;;;;
4.485;4485000;170;;;;;;;;;;;;;;
4.4875;4487500;139;;;;;;;;;;;;;;
4.49;4490000;141;;;;;;;;;;;;;;
4.4925;4492500;154;4493368;130.941;-459.01;130.942;425.298;-144.777;425.298;4492919;-35.541;-123.508;-35.541;1538.254;-188.106;1538.254
4.495;4495000;377;;;;;;;;;;;;;;
4.4975;4497500;250;;;;;;;;;;;;;;
4.5;4500000;199;;;;;;;;;;;;;;
4.5025;4502500;169;;;;;;;;;;;;;;
4.505;4505000;151;;;;;;;;;;;;;;
4.5075;4507500;157;;;;;;;;;;;;;;
4.51;4510000;166;;;;;;;;;;;;;;
4.5125;4512500;153;;;;;;;;;;;;;;
4.515;4515000;288;;;;;;;;;;;;;;
4.5175;4517500;312;4517931;130.897;-458.721;130.897;420.22;-155.476;420.22;4517490;-35.521;-123.481;-35.521;1537.466;-192.7;1537.466
4.52;4520000;221;;;;;;;;;;;;;;
4.5225;4522500;173;;;;;;;;;;;;;;
4.525;4525000;144;;;;;;;;;;;;;;
4.5275;4527500;142;;;;;;;;;;;;;;
4.53;4530000;142;;;;;;;;;;;;;;
4.5325;4532500;173;;;;;;;;;;;;;;
4.535;4535000;186;;;;;;;;;;;;;;
4.5375;4537500;169;;;;;;;;;;;;;;
4.54;4540000;167;;;;;;;;;;;;;;
4.5425;4542500;155;;;;;;;;;;;;;;
4.545;4545000;160;;;;;;;;;;;;;;
4.5475;4547500;335;;;;;;;;;;;;;;
4.55;4550000;216;;;;;;;;;;;;;;
4.5525;4552500;201;;;;;;;;;;;;;;
4.555;4555000;191;;;;;;;;;;;;;;
4.5575;4557500;171;;;;;;;;;;;;;;
4.56;4560000;186;;;;;;;;;;;;;;
4.5625;4562500;173;;;;;;;;;;;;;;
4.565;4565000;141;;;;;;;;;;;;;;
4.5675;4567500;156;;;;;;;;;;;;;;
4.57;4570000;142;;;;;;;;;;;;;;
4.5725;4572500;172;;;;;;;;;;;;;;
4.575;4575000;349;;;;;;;;;;;;;;
4.5775;4577500;285;;;;;;;;;;;;;;
4.58;4580000;231;;;;;;;;;;;;;;
4.5825;4582500;187;;;;;;;;;;;;;;
4.585;4585000;167;;;;;;;;;;;;;;
4.5875;4587500;138;;;;;;;;;;;;;;
4.59;4590000;143;;;;;;;;;;;;;;
4.5925;4592500;171;;;;;;;;;;;;;;
4.595;4595000;157;;;;;;;;;;;;;;
4.5975;4597500;363;;;;;;;;;;;;;;
4.6;4600000;268;;;;;;;;;;;;;;
4.6025;4602500;206;;;;;;;;;;;;;;
4.605;4605000;174;;;;;;;;;;;;;;
4.6075;4607500;142;;;;;;;;;;;;;;
4.61;4610000;168;;;;;;;;;;;;;;
4.6125;4612500;152;;;;;;;;;;;;;;
4.615;4615000;158;;;;;;;;;;;;;;
4.6175;4617500;185;;;;;;;;;;;;;;
4.62;4620000;160;;;;;;;;;;;;;;
4.6225;4622500;330;;;;;;;;;;;;;;
