timestamp_s;timestamp_us;emg_raw;imu1_timestamp_us;imu1_ax;imu1_ay;imu1_az;imu1_gx;imu1_gy;imu1_gz;imu2_timestamp_us;imu2_ax;imu2_ay;imu2_az;imu2_gx;imu2_gy;imu2_gz
0.0;14357307;;14357307;383.407;923.853;16.41;-5634.833;-5859.002;-1769.117;;;;;;;
0.033254;14390561;;14390561;382.921;920.836;20.458;-6555.341;-6002.239;-2152.723;14390121;100.756;815.285;67.396;-44404.211;16743.803;32712.949
0.066569;14423876;;14423876;381.709;915.249;24.711;-6780.574;-6038.565;-2476.899;14423448;117.684;811.938;92.202;-42611.875;15783.675;31328.426
0.075193;14432500;1992;;;;;;;;;;;;;;
0.077693;14435000;1979;;;;;;;;;;;;;;
0.080193;14437500;1976;;;;;;;;;;;;;;
0.082693;14440000;1976;;;;;;;;;;;;;;
0.085193;14442500;1979;;;;;;;;;;;;;;
0.087693;14445000;1979;;;;;;;;;;;;;;
0.090193;14447500;1975;;;;;;;;;;;;;;
0.092693;14450000;1960;;;;;;;;;;;;;;
0.095193;14452500;1946;;;;;;;;;;;;;;
0.097693;14455000;1930;;;;;;;;;;;;;;
0.100193;14457500;1928;14457214;381.436;911.821;27.453;-6508.482;-5866.137;-2613.804;14456774;132.113;801.067;112.816;-41672.594;15210.616;29758.504
0.102693;14460000;1932;;;;;;;;;;;;;;
0.105193;14462500;1943;;;;;;;;;;;;;;
0.107693;14465000;1944;;;;;;;;;;;;;;
0.110193;14467500;1934;;;;;;;;;;;;;;
0.112693;14470000;1919;;;;;;;;;;;;;;
0.115193;14472500;1903;;;;;;;;;;;;;;
0.117693;14475000;1896;;;;;;;;;;;;;;
0.120193;14477500;1896;;;;;;;;;;;;;;
0.122693;14480000;1900;;;;;;;;;;;;;;
0.125193;14482500;1898;;;;;;;;;;;;;;
0.127693;14485000;1916;;;;;;;;;;;;;;
0.130193;14487500;1915;;;;;;;;14488554;145.027;789.823;133.502;-39827.402;14569.522;28364.203
0.132693;14490000;1898;14488976;381.03;909.046;29.856;-6239.496;-5591.205;-2563.177;;;;;;;
0.135193;14492500;1885;;;;;;;;;;;;;;
0.137693;14495000;1880;;;;;;;;;;;;;;
0.140193;14497500;1881;;;;;;;;;;;;;;
0.142693;14500000;1884;;;;;;;;;;;;;;
0.145193;14502500;1897;;;;;;;;;;;;;;
0.147693;14505000;1901;;;;;;;;;;;;;;
0.150193;14507500;1885;;;;;;;;;;;;;;
0.152693;14510000;1884;;;;;;;;;;;;;;
0.155193;14512500;1880;;;;;;;;;;;;;;
0.157693;14515000;1869;;;;;;;;;;;;;;
0.160193;14517500;1864;;;;;;;;;;;;;;
0.162693;14520000;1883;;;;;;;;;;;;;;
0.165193;14522500;1896;14522413;379.711;907.562;31.615;-5511.021;-5208.832;-2561.893;14521968;157.613;783.638;154.039;-37146.094;13778.921;27205.43
0.167693;14525000;1898;;;;;;;;;;;;;;
0.170193;14527500;1895;;;;;;;;;;;;;;
0.172693;14530000;1898;;;;;;;;;;;;;;
0.175193;14532500;1881;;;;;;;;;;;;;;
0.177693;14535000;1880;;;;;;;;;;;;;;
0.180193;14537500;1882;;;;;;;;;;;;;;
0.182693;14540000;1886;;;;;;;;;;;;;;
0.185193;14542500;1898;;;;;;;;;;;;;;
0.187693;14545000;1903;;;;;;;;;;;;;;
0.190193;14547500;1904;;;;;;;;;;;;;;
0.192693;14550000;1898;;;;;;;;;;;;;;
0.195193;14552500;1886;;;;;;;;;;;;;;
0.197693;14555000;1881;;;;;;;;;;;;;;
0.200193;14557500;1883;;;;;;;;;;;;;;
0.202693;14560000;1900;;;;;;;;;;;;;;
0.205193;14562500;1911;;;;;;;;;;;;;;
0.207693;14565000;1915;14565711;379.16;905.146;31.98;-4844.344;-4659.203;-2193.173;14565281;168.972;771.077;172.049;-33848.539;12978.85;25837.283
0.210193;14567500;1915;;;;;;;;;;;;;;
0.212693;14570000;1911;;;;;;;;;;;;;;
0.215193;14572500;1897;;;;;;;;;;;;;;
0.217693;14575000;1896;;;;;;;;;;;;;;
0.220193;14577500;1896;;;;;;;;;;;;;;
0.222693;14580000;1900;;;;;;;;;;;;;;
0.225193;14582500;1914;;;;;;;;;;;;;;
0.227693;14585000;1928;;;;;;;;;;;;;;
0.230193;14587500;1920;;;;;;;;;;;;;;
0.232693;14590000;1913;;;;;;;;;;;;;;
0.235193;14592500;1902;;;;;;;;;;;;;;
0.237693;14595000;1897;;;;;;;;;;;;;;
0.240193;14597500;1899;;;;;;;;14598697;179.201;766.915;187.993;-28495.111;11944.032;24638.168
0.242693;14600000;1912;14599134;378.276;906.585;32.43;-3947.627;-4125.68;-1976.327;;;;;;;
0.245193;14602500;1917;;;;;;;;;;;;;;
0.247693;14605000;1931;;;;;;;;;;;;;;
0.250193;14607500;1928;;;;;;;;;;;;;;
0.252693;14610000;1915;;;;;;;;;;;;;;
0.255193;14612500;1911;;;;;;;;;;;;;;
0.257693;14615000;1898;;;;;;;;;;;;;;
0.260193;14617500;1897;;;;;;;;;;;;;;
0.262693;14620000;1912;;;;;;;;;;;;;;
0.265193;14622500;1919;;;;;;;;;;;;;;
0.267693;14625000;1929;;;;;;;;;;;;;;
0.270193;14627500;1918;;;;;;;;;;;;;;
0.272693;14630000;1913;14629248;377.467;908.976;36.067;-3006.496;-3477.083;-1630.76;14628818;191.262;768.298;200.956;-23658.73;10835.393;23624.135
0.275193;14632500;1896;;;;;;;;;;;;;;
0.277693;14635000;1887;;;;;;;;;;;;;;
0.280193;14637500;1885;;;;;;;;;;;;;;
0.282693;14640000;1898;;;;;;;;;;;;;;
0.285193;14642500;1902;;;;;;;;;;;;;;
0.287693;14645000;1915;;;;;;;;;;;;;;
0.290193;14647500;1913;;;;;;;;;;;;;;
0.292693;14650000;1899;;;;;;;;;;;;;;
0.295193;14652500;1884;;;;;;;;;;;;;;
0.297693;14655000;1881;;;;;;;;;;;;;;
0.300193;14657500;1870;;;;;;;;;;;;;;
0.302693;14660000;1881;;;;;;;;;;;;;;
0.305193;14662500;1886;;;;;;;;;;;;;;
0.307693;14665000;1897;14665957;377.15;911.211;37.625;-2437.046;-3119.479;-1494.535;14665525;203.348;775.829;210.66;-20155.73;9870.561;22550.99
0.310193;14667500;1887;;;;;;;;;;;;;;
0.312693;14670000;1881;;;;;;;;;;;;;;
0.315193;14672500;1867;;;;;;;;;;;;;;
0.317693;14675000;1854;;;;;;;;;;;;;;
0.320193;14677500;1853;;;;;;;;;;;;;;
0.322693;14680000;1865;;;;;;;;;;;;;;
0.325193;14682500;1869;;;;;;;;;;;;;;
0.327693;14685000;1881;;;;;;;;;;;;;;
0.330193;14687500;1872;;;;;;;;;;;;;;
0.332693;14690000;1866;;;;;;;;;;;;;;
0.335193;14692500;1850;;;;;;;;;;;;;;
0.337693;14695000;1838;;;;;;;;;;;;;;
0.340193;14697500;1837;;;;;;;;;;;;;;
0.342693;14700000;1847;14699287;377.642;912.949;37.391;-2467.006;-2700.13;-1230.371;14698852;214.884;775.351;220.22;-18403.756;9106.657;21433.941
0.345193;14702500;1852;;;;;;;;;;;;;;
0.347693;14705000;1865;;;;;;;;;;;;;;
0.350193;14707500;1854;;;;;;;;;;;;;;
0.352693;14710000;1847;;;;;;;;;;;;;;
0.355193;14712500;1836;;;;;;;;;;;;;;
0.357693;14715000;1821;;;;;;;;;;;;;;
0.360193;14717500;1823;;;;;;;;;;;;;;
0.362693;14720000;1833;;;;;;;;;;;;;;
0.365193;14722500;1838;;;;;;;;;;;;;;
0.367693;14725000;1849;;;;;;;;;;;;;;
0.370193;14727500;1839;;;;;;;;;;;;;;
0.372693;14730000;1834;14730976;376.462;913.229;38.467;-2299.906;-2313.999;-954.477;14730544;223.434;772.934;230.687;-16034.568;8398.887;20412.119
0.375193;14732500;1818;;;;;;;;;;;;;;
0.377693;14735000;1815;;;;;;;;;;;;;;
0.380193;14737500;1806;;;;;;;;;;;;;;
0.382693;14740000;1807;;;;;;;;;;;;;;
0.385193;14742500;1819;;;;;;;;;;;;;;
0.387693;14745000;1821;;;;;;;;;;;;;;
0.390193;14747500;1818;;;;;;;;;;;;;;
0.392693;14750000;1801;;;;;;;;;;;;;;
0.395193;14752500;1788;;;;;;;;;;;;;;
0.397693;14755000;1783;;;;;;;;;;;;;;
0.400193;14757500;1773;;;;;;;;;;;;;;
0.402693;14760000;1784;;;;;;;;;;;;;;
0.405193;14762500;1788;;;;;;;;;;;;;;
0.407693;14765000;1790;;;;;;;;;;;;;;
0.410193;14767500;1787;;;;;;;;;;;;;;
0.412693;14770000;1773;;;;;;;;;;;;;;
0.415193;14772500;1760;;;;;;;;;;;;;;
0.417693;14775000;1750;14775750;376.164;913.25;40.241;-1556.66;-2076.674;-818.378;14775320;235.314;781.019;238.081;-14541.152;7921.63;19599.764
0.420193;14777500;1743;;;;;;;;;;;;;;
0.422693;14780000;1753;;;;;;;;;;;;;;
0.425193;14782500;1758;;;;;;;;;;;;;;
0.427693;14785000;1768;;;;;;;;;;;;;;
0.430193;14787500;1759;;;;;;;;;;;;;;
0.432693;14790000;1751;;;;;;;;;;;;;;
0.435193;14792500;1736;;;;;;;;;;;;;;
0.437693;14795000;1723;;;;;;;;;;;;;;
0.440193;14797500;1722;;;;;;;;;;;;;;
0.442693;14800000;1725;;;;;;;;;;;;;;
0.445193;14802500;1738;;;;;;;;;;;;;;
0.447693;14805000;1740;;;;;;;;;;;;;;
0.450193;14807500;1736;14807363;376.358;911.465;40.4;-1267.952;-1853.402;-577.522;14806925;245.197;780.386;243.446;-13902.907;7520.736;18590.9
0.452693;14810000;1725;;;;;;;;;;;;;;
0.455193;14812500;1708;;;;;;;;;;;;;;
0.457693;14815000;1704;;;;;;;;;;;;;;
0.460193;14817500;1704;;;;;;;;;;;;;;
0.462693;14820000;1708;;;;;;;;;;;;;;
0.465193;14822500;1712;;;;;;;;;;;;;;
0.467693;14825000;1722;;;;;;;;;;;;;;
0.470193;14827500;1721;;;;;;;;;;;;;;
0.472693;14830000;1708;;;;;;;;;;;;;;
0.475193;14832500;1694;14832352;376.389;912.051;39.21;-1073.742;-1636.92;-216.583;14831922;252.805;774.569;248.836;-12765.887;6886.136;17616.293
0.477693;14835000;1677;;;;;;;;;;;;;;
0.480193;14837500;1687;;;;;;;;;;;;;;
0.482693;14840000;1692;;;;;;;;;;;;;;
0.485193;14842500;1704;;;;;;;;;;;;;;
0.487693;14845000;1708;;;;;;;;;;;;;;
0.490193;14847500;1706;;;;;;;;;;;;;;
0.492693;14850000;1693;;;;;;;;;;;;;;
0.495193;14852500;1687;;;;;;;;;;;;;;
0.497693;14855000;1675;;;;;;;;;;;;;;
0.500193;14857500;1676;;;;;;;;;;;;;;
0.502693;14860000;1689;;;;;;;;;;;;;;
0.505193;14862500;1692;;;;;;;;;;;;;;
0.507693;14865000;1705;;;;;;;;;;;;;;
0.510193;14867500;1705;;;;;;;;;;;;;;
0.512693;14870000;1692;;;;;;;;;;;;;;
0.515193;14872500;1678;;;;;;;;14873406;260.411;773.813;255.255;-9545.467;5718.017;16340.854
0.517693;14875000;1675;14873838;375.29;912.094;36.889;-1089.18;-1418.574;56.746;;;;;;;
0.520193;14877500;1677;;;;;;;;;;;;;;
0.522693;14880000;1689;;;;;;;;;;;;;;
0.525193;14882500;1704;;;;;;;;;;;;;;
0.527693;14885000;1707;;;;;;;;;;;;;;
0.530193;14887500;1706;;;;;;;;;;;;;;
0.532693;14890000;1694;;;;;;;;;;;;;;
0.535193;14892500;1691;;;;;;;;;;;;;;
0.537693;14895000;1687;;;;;;;;;;;;;;
0.540193;14897500;1688;;;;;;;;;;;;;;
0.542693;14900000;1693;;;;;;;;;;;;;;
0.545193;14902500;1708;;;;;;;;;;;;;;
0.547693;14905000;1710;;;;;;;;;;;;;;
0.550193;14907500;1721;14906822;375.167;912.105;32.898;-1110.409;-1381.333;321.659;14906386;265.849;781.763;256.144;-4451.693;4202.741;14788.373
0.552693;14910000;1711;;;;;;;;;;;;;;
0.555193;14912500;1703;;;;;;;;;;;;;;
0.557693;14915000;1694;;;;;;;;;;;;;;
0.560193;14917500;1695;;;;;;;;;;;;;;
0.562693;14920000;1709;;;;;;;;;;;;;;
0.565193;14922500;1722;;;;;;;;;;;;;;
0.567693;14925000;1736;;;;;;;;;;;;;;
0.570193;14927500;1728;;;;;;;;;;;;;;
0.572693;14930000;1724;;;;;;;;;;;;;;
0.575193;14932500;1721;14933300;375.331;913.745;33.174;-1461.326;-1450.516;640.701;14932867;273.772;779.275;260.948;1033.579;2635.916;12792.017
0.577693;14935000;1708;;;;;;;;;;;;;;
0.580193;14937500;1710;;;;;;;;;;;;;;
0.582693;14940000;1725;;;;;;;;;;;;;;
0.585193;14942500;1739;;;;;;;;;;;;;;
0.587693;14945000;1741;;;;;;;;;;;;;;
0.590193;14947500;1742;;;;;;;;;;;;;;
0.592693;14950000;1741;;;;;;;;;;;;;;
0.595193;14952500;1727;;;;;;;;;;;;;;
0.597693;14955000;1724;;;;;;;;;;;;;;
0.600193;14957500;1725;;;;;;;;;;;;;;
0.602693;14960000;1737;;;;;;;;;;;;;;
0.605193;14962500;1752;;;;;;;;;;;;;;
0.607693;14965000;1757;;;;;;;;;;;;;;
0.610193;14967500;1758;;;;;;;;;;;;;;
0.612693;14970000;1755;14971228;373.126;913.533;32.168;-1628.884;-1425.678;786.291;14970798;278.408;786.762;257.38;8560.275;917.308;10419.041
0.615193;14972500;1741;;;;;;;;;;;;;;
0.617693;14975000;1738;;;;;;;;;;;;;;
0.620193;14977500;1739;;;;;;;;;;;;;;
0.622693;14980000;1754;;;;;;;;;;;;;;
0.625193;14982500;1760;;;;;;;;;;;;;;
0.627693;14985000;1771;;;;;;;;;;;;;;
0.630193;14987500;1770;;;;;;;;;;;;;;
0.632693;14990000;1767;;;;;;;;;;;;;;
0.635193;14992500;1754;;;;;;;;;;;;;;
0.637693;14995000;1752;;;;;;;;;;;;;;
0.640193;14997500;1753;;;;;;;;;;;;;;
0.642693;15000000;1757;;;;;;;;;;;;;;
0.645193;15002500;1772;;;;;;;;;;;;;;
0.647693;15005000;1784;;;;;;;;;;;;;;
0.650193;15007500;1785;;;;;;;;;;;;;;
0.652693;15010000;1775;;;;;;;;;;;;;;
0.655193;15012500;1767;;;;;;;;;;;;;;
0.657693;15015000;1757;15015664;376.667;914.491;33.317;-1620.065;-1341.269;839.726;15015227;280.055;792.296;250.757;17020.074;-279.62;7990.151
0.660193;15017500;1760;;;;;;;;;;;;;;
0.662693;15020000;1770;;;;;;;;;;;;;;
0.665193;15022500;1783;;;;;;;;;;;;;;
0.667693;15025000;1790;;;;;;;;;;;;;;
0.670193;15027500;1788;;;;;;;;;;;;;;
0.672693;15030000;1784;;;;;;;;;;;;;;
0.675193;15032500;1771;;;;;;;;;;;;;;
0.677693;15035000;1768;;;;;;;;;;;;;;
0.680193;15037500;1767;;;;;;;;;;;;;;
0.682693;15040000;1772;;;;;;;;;;;;;;
0.685193;15042500;1785;;;;;;;;;;;;;;
0.687693;15045000;1787;;;;;;;;;;;;;;
0.690193;15047500;1789;;;;;;;;;;;;;;
0.692693;15050000;1785;;;;;;;;;;;;;;
0.695193;15052500;1771;;;;;;;;;;;;;;
0.697693;15055000;1770;;;;;;;;;;;;;;
0.700193;15057500;1767;15058536;377.775;917.036;36.586;-1397.312;-1263.268;847.615;15058106;280.601;794.71;234.126;27334.945;-1958.327;4824.769
0.702693;15060000;1775;;;;;;;;;;;;;;
0.705193;15062500;1787;;;;;;;;;;;;;;
0.707693;15065000;1801;;;;;;;;;;;;;;
0.710193;15067500;1791;;;;;;;;;;;;;;
0.712693;15070000;1785;;;;;;;;;;;;;;
0.715193;15072500;1774;;;;;;;;;;;;;;
0.717693;15075000;1770;;;;;;;;;;;;;;
0.720193;15077500;1773;;;;;;;;;;;;;;
0.722693;15080000;1784;;;;;;;;;;;;;;
0.725193;15082500;1790;;;;;;;;;;;;;;
0.727693;15085000;1802;;;;;;;;;;;;;;
0.730193;15087500;1803;;;;;;;;;;;;;;
0.732693;15090000;1800;;;;;;;;15091174;281.845;808.118;212.282;38031.82;-3246.41;2060.03
0.735193;15092500;1785;15091612;376.887;919.038;36.672;-1764.946;-1062.729;903.672;;;;;;;
0.737693;15095000;1783;;;;;;;;;;;;;;
0.740193;15097500;1787;;;;;;;;;;;;;;
0.742693;15100000;1799;;;;;;;;;;;;;;
0.745193;15102500;1806;;;;;;;;;;;;;;
0.747693;15105000;1820;;;;;;;;;;;;;;
0.750193;15107500;1819;;;;;;;;;;;;;;
0.752693;15110000;1817;;;;;;;;;;;;;;
0.755193;15112500;1805;;;;;;;;;;;;;;
0.757693;15115000;1803;;;;;;;;;;;;;;
0.760193;15117500;1805;;;;;;;;;;;;;;
0.762693;15120000;1818;;;;;;;;;;;;;;
0.765193;15122500;1833;15123035;378.356;920.099;41.164;-2534.636;-622.843;994.113;15122605;281.545;810.326;188.351;46777.668;-3699.215;-310.096
0.767693;15125000;1837;;;;;;;;;;;;;;
0.770193;15127500;1847;;;;;;;;;;;;;;
0.772693;15130000;1835;;;;;;;;;;;;;;
0.775193;15132500;1823;;;;;;;;;;;;;;
0.777693;15135000;1821;;;;;;;;;;;;;;
0.780193;15137500;1824;;;;;;;;;;;;;;
0.782693;15140000;1833;;;;;;;;;;;;;;
0.785193;15142500;1849;;;;;;;;;;;;;;
0.787693;15145000;1853;;;;;;;;;;;;;;
0.790193;15147500;1852;;;;;;;;;;;;;;
0.792693;15150000;1847;;;;;;;;;;;;;;
0.795193;15152500;1835;;;;;;;;;;;;;;
0.797693;15155000;1834;15156023;376.988;913.384;41.491;-3135.03;-27.763;1216.97;15155586;283.248;809.722;155.796;52392.973;-4163.066;-2097.529
0.800193;15157500;1832;;;;;;;;;;;;;;
0.802693;15160000;1837;;;;;;;;;;;;;;
0.805193;15162500;1849;;;;;;;;;;;;;;
0.807693;15165000;1851;;;;;;;;;;;;;;
0.810193;15167500;1849;;;;;;;;;;;;;;
0.812693;15170000;1838;;;;;;;;;;;;;;
0.815193;15172500;1831;;;;;;;;;;;;;;
0.817693;15175000;1816;;;;;;;;;;;;;;
0.820193;15177500;1818;;;;;;;;;;;;;;
0.822693;15180000;1819;;;;;;;;;;;;;;
0.825193;15182500;1832;;;;;;;;;;;;;;
0.827693;15185000;1835;;;;;;;;;;;;;;
0.830193;15187500;1834;;;;;;;;15188652;284.799;816.139;119.367;55436.762;-4606.351;-3124.465
0.832693;15190000;1818;15189082;379.196;912.513;41.918;-3334.841;485.5;1377.934;;;;;;;
0.835193;15192500;1806;;;;;;;;;;;;;;
0.837693;15195000;1791;;;;;;;;;;;;;;
0.840193;15197500;1790;;;;;;;;;;;;;;
0.842693;15200000;1800;;;;;;;;;;;;;;
0.845193;15202500;1805;;;;;;;;;;;;;;
0.847693;15205000;1816;;;;;;;;;;;;;;
0.850193;15207500;1805;;;;;;;;;;;;;;
0.852693;15210000;1799;;;;;;;;;;;;;;
0.855193;15212500;1784;;;;;;;;;;;;;;
0.857693;15215000;1771;;;;;;;;;;;;;;
0.860193;15217500;1768;;;;;;;;;;;;;;
0.862693;15220000;1772;;;;;;;;;;;;;;
0.865193;15222500;1775;15222157;379.994;906.861;45.336;-3663.348;1207.163;1734.725;15221719;284.907;820.21;87.59;55770.297;-4270.158;-4565.117
0.867693;15225000;1784;;;;;;;;;;;;;;
0.870193;15227500;1774;;;;;;;;;;;;;;
0.872693;15230000;1768;;;;;;;;;;;;;;
0.875193;15232500;1741;;;;;;;;;;;;;;
0.877693;15235000;1736;;;;;;;;;;;;;;
0.880193;15237500;1727;;;;;;;;;;;;;;
0.882693;15240000;1726;;;;;;;;;;;;;;
0.885193;15242500;1735;;;;;;;;;;;;;;
0.887693;15245000;1728;;;;;;;;;;;;;;
0.890193;15247500;1723;;;;;;;;;;;;;;
0.892693;15250000;1707;;;;;;;;;;;;;;
0.895193;15252500;1689;;;;;;;;;;;;;;
0.897693;15255000;1676;15255215;380.746;907.158;47.034;-2903.556;1708.992;1937.176;15254785;281.428;818.441;54.089;55696.031;-4355.463;-5735.111
0.900193;15257500;1673;;;;;;;;;;;;;;
0.902693;15260000;1672;;;;;;;;;;;;;;
0.905193;15262500;1674;;;;;;;;;;;;;;
0.907693;15265000;1675;;;;;;;;;;;;;;
0.910193;15267500;1672;;;;;;;;;;;;;;
0.912693;15270000;1657;;;;;;;;;;;;;;
0.915193;15272500;1640;;;;;;;;;;;;;;
0.917693;15275000;1627;;;;;;;;;;;;;;
0.920193;15277500;1614;;;;;;;;;;;;;;
0.922693;15280000;1625;;;;;;;;;;;;;;
0.925193;15282500;1627;;;;;;;;;;;;;;
0.927693;15285000;1628;;;;;;;;15286217;278.324;816.095;24.184;54535.23;-4173.564;-6350.48
0.930193;15287500;1626;15286650;381.637;909.649;48.648;-2148.503;1912.73;1959.755;;;;;;;
0.932693;15290000;1610;;;;;;;;;;;;;;
0.935193;15292500;1596;;;;;;;;;;;;;;
0.937693;15295000;1592;;;;;;;;;;;;;;
0.940193;15297500;1581;;;;;;;;;;;;;;
0.942693;15300000;1591;;;;;;;;;;;;;;
0.945193;15302500;1595;;;;;;;;;;;;;;
0.947693;15305000;1596;;;;;;;;;;;;;;
0.950193;15307500;1595;;;;;;;;;;;;;;
0.952693;15310000;1583;;;;;;;;;;;;;;
0.955193;15312500;1577;;;;;;;;;;;;;;
0.957693;15315000;1566;;;;;;;;;;;;;;
0.960193;15317500;1575;;;;;;;;;;;;;;
0.962693;15320000;1577;15319719;381.27;910.392;48.991;-2147.828;2131.656;2143.079;15319284;276.401;812.909;-6.811;52931.969;-3852.886;-6950.394
0.965193;15322500;1590;;;;;;;;;;;;;;
0.967693;15325000;1592;;;;;;;;;;;;;;
0.970193;15327500;1595;;;;;;;;;;;;;;
0.972693;15330000;1579;;;;;;;;;;;;;;
0.975193;15332500;1567;;;;;;;;;;;;;;
0.977693;15335000;1564;;;;;;;;;;;;;;
0.980193;15337500;1563;;;;;;;;;;;;;;
0.982693;15340000;1566;;;;;;;;;;;;;;
0.985193;15342500;1583;;;;;;;;;;;;;;
0.987693;15345000;1581;;;;;;;;;;;;;;
0.990193;15347500;1582;;;;;;;;;;;;;;
0.992693;15350000;1579;;;;;;;;;;;;;;
0.995193;15352500;1566;;;;;;;;;;;;;;
0.997693;15355000;1562;;;;;;;;;;;;;;
1.000193;15357500;1564;;;;;;;;;;;;;;
1.002693;15360000;1576;;;;;;;;;;;;;;
1.005193;15362500;1580;15362690;381.422;910.714;49.744;-1937.624;2210.573;2176.8;15362250;272.328;810.633;-36.794;51995.996;-3860.179;-7324.312
1.007693;15365000;1595;;;;;;;;;;;;;;
1.010193;15367500;1592;;;;;;;;;;;;;;
1.012693;15370000;1591;;;;;;;;;;;;;;
1.015193;15372500;1579;;;;;;;;;;;;;;
1.017693;15375000;1577;;;;;;;;;;;;;;
1.020193;15377500;1581;;;;;;;;;;;;;;
1.022693;15380000;1592;;;;;;;;;;;;;;
1.025193;15382500;1607;;;;;;;;;;;;;;
1.027693;15385000;1614;;;;;;;;;;;;;;
1.030193;15387500;1615;;;;;;;;;;;;;;
1.032693;15390000;1614;;;;;;;;;;;;;;
1.035193;15392500;1612;;;;;;;;;;;;;;
1.037693;15395000;1608;15395833;382.749;911.38;50.764;-1641.68;2234.794;2278.835;15395405;269.826;806.079;-65.387;50703.008;-3750.295;-7616.096
1.040193;15397500;1613;;;;;;;;;;;;;;
1.042693;15400000;1626;;;;;;;;;;;;;;
1.045193;15402500;1640;;;;;;;;;;;;;;
1.047693;15405000;1657;;;;;;;;;;;;;;
1.050193;15407500;1658;;;;;;;;;;;;;;
1.052693;15410000;1656;;;;;;;;;;;;;;
1.055193;15412500;1647;;;;;;;;;;;;;;
1.057693;15415000;1646;;;;;;;;;;;;;;
1.060193;15417500;1656;;;;;;;;;;;;;;
1.062693;15420000;1672;;;;;;;;;;;;;;
1.065193;15422500;1679;;;;;;;;;;;;;;
1.067693;15425000;1694;15425706;383.79;911.018;51.727;-1511.471;2378.117;2350.831;15425266;267.254;801.094;-92.465;49544.23;-3687.906;-7843.854
1.070193;15427500;1704;;;;;;;;;;;;;;
1.072693;15430000;1703;;;;;;;;;;;;;;
1.075193;15432500;1689;;;;;;;;;;;;;;
1.077693;15435000;1690;;;;;;;;;;;;;;
1.080193;15437500;1694;;;;;;;;;;;;;;
1.082693;15440000;1709;;;;;;;;;;;;;;
1.085193;15442500;1725;;;;;;;;;;;;;;
1.087693;15445000;1738;;;;;;;;;;;;;;
1.090193;15447500;1741;;;;;;;;;;;;;;
1.092693;15450000;1740;;;;;;;;;;;;;;
1.095193;15452500;1737;;;;;;;;;;;;;;
1.097693;15455000;1736;;;;;;;;;;;;;;
1.100193;15457500;1739;;;;;;;;;;;;;;
1.102693;15460000;1752;;;;;;;;;;;;;;
1.105193;15462500;1771;15462140;387.543;908.899;54.436;-1044.335;2362.461;2308.977;15461712;259.107;799.89;-118.067;48559.332;-3449.26;-7907.973
1.107693;15465000;1784;;;;;;;;;;;;;;
1.110193;15467500;1787;;;;;;;;;;;;;;
1.112693;15470000;1785;;;;;;;;;;;;;;
1.115193;15472500;1774;;;;;;;;;;;;;;
1.117693;15475000;1772;;;;;;;;;;;;;;
1.120193;15477500;1784;;;;;;;;;;;;;;
1.122693;15480000;1790;;;;;;;;;;;;;;
1.125193;15482500;1808;;;;;;;;;;;;;;
1.127693;15485000;1823;;;;;;;;;;;;;;
1.130193;15487500;1831;;;;;;;;;;;;;;
1.132693;15490000;1822;;;;;;;;;;;;;;
1.135193;15492500;1818;;;;;;;;;;;;;;
1.137693;15495000;1816;15495393;389.26;908.527;56.063;-582.619;2362.901;2340.528;15494953;256.881;796.66;-144.189;47079.863;-3315.735;-7895.387
1.140193;15497500;1819;;;;;;;;;;;;;;
1.142693;15500000;1834;;;;;;;;;;;;;;
1.145193;15502500;1850;;;;;;;;;;;;;;
1.147693;15505000;1864;;;;;;;;;;;;;;
1.150193;15507500;1868;;;;;;;;;;;;;;
1.152693;15510000;1862;;;;;;;;;;;;;;
1.155193;15512500;1852;;;;;;;;;;;;;;
1.157693;15515000;1852;;;;;;;;;;;;;;
1.160193;15517500;1853;;;;;;;;;;;;;;
1.162693;15520000;1866;;;;;;;;;;;;;;
1.165193;15522500;1880;;;;;;;;;;;;;;
1.167693;15525000;1895;;;;;;;;;;;;;;
1.170193;15527500;1898;15526893;390.799;907.911;56.694;-402.113;2357.631;2335.064;15526471;253.535;793.287;-169.328;45636.746;-3136.823;-7908.367
1.172693;15530000;1895;;;;;;;;;;;;;;
1.175193;15532500;1883;;;;;;;;;;;;;;
1.177693;15535000;1880;;;;;;;;;;;;;;
1.180193;15537500;1882;;;;;;;;;;;;;;
1.182693;15540000;1896;;;;;;;;;;;;;;
1.185193;15542500;1911;;;;;;;;;;;;;;
1.187693;15545000;1916;;;;;;;;;;;;;;
1.190193;15547500;1919;;;;;;;;;;;;;;
1.192693;15550000;1917;;;;;;;;;;;;;;
1.195193;15552500;1912;;;;;;;;;;;;;;
1.197693;15555000;1902;;;;;;;;;;;;;;
1.200193;15557500;1911;;;;;;;;;;;;;;
1.202693;15560000;1926;15560077;391.932;906.588;58.313;-7.069;2251.124;2320.686;15559625;250.758;790.424;-192.746;43987.098;-3001.419;-7802.574
1.205193;15562500;1933;;;;;;;;;;;;;;
1.207693;15565000;1945;;;;;;;;;;;;;;
1.210193;15567500;1946;;;;;;;;;;;;;;
1.212693;15570000;1935;;;;;;;;;;;;;;
1.215193;15572500;1930;;;;;;;;;;;;;;
1.217693;15575000;1928;;;;;;;;;;;;;;
1.220193;15577500;1930;;;;;;;;;;;;;;
1.222693;15580000;1943;;;;;;;;;;;;;;
1.225193;15582500;1951;;;;;;;;;;;;;;
1.227693;15585000;1959;;;;;;;;;;;;;;
1.230193;15587500;1964;;;;;;;;;;;;;;
1.232693;15590000;1960;;;;;;;;;;;;;;
1.235193;15592500;1951;15593027;393.173;906.106;59.38;311.346;2151.255;2321.026;15592605;247.816;786.289;-216.116;42079.555;-2892.911;-7550.695
1.237693;15595000;1950;;;;;;;;;;;;;;
1.240193;15597500;1950;;;;;;;;;;;;;;
1.242693;15600000;1962;;;;;;;;;;;;;;
1.245193;15602500;1976;;;;;;;;;;;;;;
1.247693;15605000;1984;;;;;;;;;;;;;;
1.250193;15607500;1992;;;;;;;;;;;;;;
1.252693;15610000;1981;;;;;;;;;;;;;;
1.255193;15612500;1979;;;;;;;;;;;;;;
1.257693;15615000;1976;;;;;;;;;;;;;;
1.260193;15617500;1981;;;;;;;;;;;;;;
1.262693;15620000;1979;;;;;;;;;;;;;;
1.265193;15622500;1998;;;;;;;;;;;;;;
1.267693;15625000;2009;15626112;394.321;906.191;60.553;438.404;2015.693;2255.725;15625672;246.009;783.208;-238.817;40320.328;-2746.953;-7332.41
1.270193;15627500;2010;;;;;;;;;;;;;;
1.272693;15630000;2011;;;;;;;;;;;;;;
1.275193;15632500;2010;;;;;;;;;;;;;;
1.277693;15635000;1997;;;;;;;;;;;;;;
1.280193;15637500;2007;;;;;;;;;;;;;;
1.282693;15640000;2015;;;;;;;;;;;;;;
1.285193;15642500;2027;;;;;;;;;;;;;;
1.287693;15645000;2040;;;;;;;;;;;;;;
1.290193;15647500;2042;;;;;;;;;;;;;;
1.292693;15650000;2032;;;;;;;;;;;;;;
1.295193;15652500;2011;;;;;;;;;;;;;;
1.297693;15655000;2027;;;;;;;;;;;;;;
1.300193;15657500;2027;;;;;;;;;;;;;;
1.302693;15660000;2031;;;;;;;;;;;;;;
1.305193;15662500;2048;;;;;;;;;;;;;;
1.307693;15665000;2061;;;;;;;;;;;;;;
1.310193;15667500;2061;;;;;;;;15668638;243.303;779.153;-260.048;38572.062;-2672.605;-7072.54
1.312693;15670000;2048;15669073;395.614;906.009;60.643;486.921;1945.97;2221.251;;;;;;;
1.315193;15672500;2046;;;;;;;;;;;;;;
1.317693;15675000;2042;;;;;;;;;;;;;;
1.320193;15677500;2044;;;;;;;;;;;;;;
1.322693;15680000;2059;;;;;;;;;;;;;;
1.325193;15682500;2064;;;;;;;;;;;;;;
1.327693;15685000;2077;;;;;;;;;;;;;;
1.330193;15687500;2079;;;;;;;;;;;;;;
1.332693;15690000;2076;;;;;;;;;;;;;;
1.335193;15692500;2063;;;;;;;;;;;;;;
1.337693;15695000;2064;;;;;;;;;;;;;;
1.340193;15697500;2064;;;;;;;;;;;;;;
1.342693;15700000;2076;;;;;;;;;;;;;;
1.345193;15702500;2091;15702138;396.823;905.531;63.79;668.2;1926.547;2034.064;15701706;240.178;780.291;-279.608;37059.957;-2632.6;-6877.725
1.347693;15705000;2104;;;;;;;;;;;;;;
1.350193;15707500;2106;;;;;;;;;;;;;;
1.352693;15710000;2103;;;;;;;;;;;;;;
1.355193;15712500;2093;;;;;;;;;;;;;;
1.357693;15715000;2090;;;;;;;;;;;;;;
1.360193;15717500;2090;;;;;;;;;;;;;;
1.362693;15720000;2104;;;;;;;;;;;;;;
1.365193;15722500;2121;;;;;;;;;;;;;;
1.367693;15725000;2127;;;;;;;;;;;;;;
1.370193;15727500;2134;15728622;398.131;904.071;66.621;1050.415;1663.969;1779.673;15728187;238.326;781.268;-298.372;34692.457;-2555.657;-6277.026
1.372693;15730000;2124;;;;;;;;;;;;;;
1.375193;15732500;2119;;;;;;;;;;;;;;
1.377693;15735000;2120;;;;;;;;;;;;;;
1.380193;15737500;2121;;;;;;;;;;;;;;
1.382693;15740000;2135;;;;;;;;;;;;;;
1.385193;15742500;2142;;;;;;;;;;;;;;
1.387693;15745000;2155;;;;;;;;;;;;;;
1.390193;15747500;2157;;;;;;;;;;;;;;
1.392693;15750000;2155;;;;;;;;;;;;;;
1.395193;15752500;2143;;;;;;;;;;;;;;
1.397693;15755000;2141;;;;;;;;;;;;;;
1.400193;15757500;2152;;;;;;;;;;;;;;
1.402693;15760000;2157;;;;;;;;;;;;;;
1.405193;15762500;2171;;;;;;;;;;;;;;
1.407693;15765000;2186;;;;;;;;;;;;;;
1.410193;15767500;2186;15766723;399.714;901.531;69.64;1196.957;1790.771;1857.814;15766291;239.098;779.091;-318.089;30875.77;-2391.562;-4970.925
1.412693;15770000;2185;;;;;;;;;;;;;;
1.415193;15772500;2173;;;;;;;;;;;;;;
1.417693;15775000;2175;;;;;;;;;;;;;;
1.420193;15777500;2174;;;;;;;;;;;;;;
1.422693;15780000;2188;;;;;;;;;;;;;;
1.425193;15782500;2203;;;;;;;;;;;;;;
1.427693;15785000;2216;;;;;;;;;;;;;;
1.430193;15787500;2208;;;;;;;;;;;;;;
1.432693;15790000;2215;;;;;;;;;;;;;;
1.435193;15792500;2206;;;;;;;;;;;;;;
1.437693;15795000;2203;;;;;;;;;;;;;;
1.440193;15797500;2203;;;;;;;;;;;;;;
1.442693;15800000;2217;15799880;401.085;901.118;65.194;831.734;2193.857;2355.111;15799444;238.001;780.464;-332.307;26345.168;-2365.171;-3852.628
1.445193;15802500;2234;;;;;;;;;;;;;;
1.447693;15805000;2236;;;;;;;;;;;;;;
1.450193;15807500;2240;;;;;;;;;;;;;;
1.452693;15810000;2239;;;;;;;;;;;;;;
1.455193;15812500;2234;;;;;;;;;;;;;;
1.457693;15815000;2232;;;;;;;;;;;;;;
1.460193;15817500;2234;;;;;;;;;;;;;;
1.462693;15820000;2250;;;;;;;;;;;;;;
1.465193;15822500;2264;;;;;;;;;;;;;;
1.467693;15825000;2271;;;;;;;;;;;;;;
1.470193;15827500;2280;;;;;;;;;;;;;;
1.472693;15830000;2271;15829651;401.801;901.038;63.947;692.585;2503.727;2533.105;15829219;236.41;782.439;-343.825;21088.223;-2255.662;-2686.56
1.475193;15832500;2267;;;;;;;;;;;;;;
1.477693;15835000;2268;;;;;;;;;;;;;;
1.480193;15837500;2271;;;;;;;;;;;;;;
1.482693;15840000;2280;;;;;;;;;;;;;;
1.485193;15842500;2299;;;;;;;;;;;;;;
1.487693;15845000;2314;;;;;;;;;;;;;;
1.490193;15847500;2317;;;;;;;;;;;;;;
1.492693;15850000;2316;;;;;;;;;;;;;;
1.495193;15852500;2314;;;;;;;;;;;;;;
1.497693;15855000;2313;;;;;;;;;;;;;;
1.500193;15857500;2318;;;;;;;;;;;;;;
1.502693;15860000;2330;;;;;;;;;;;;;;
1.505193;15862500;2349;;;;;;;;;;;;;;
1.507693;15865000;2362;15866009;403.207;901.711;61.568;1148.831;2586.791;2845.263;15865578;233.587;786.23;-350.85;14932.561;-2004.192;-1747.669
1.510193;15867500;2366;;;;;;;;;;;;;;
1.512693;15870000;2366;;;;;;;;;;;;;;
1.515193;15872500;2366;;;;;;;;;;;;;;
1.517693;15875000;2363;;;;;;;;;;;;;;
1.520193;15877500;2376;;;;;;;;;;;;;;
1.522693;15880000;2392;;;;;;;;;;;;;;
1.525193;15882500;2407;;;;;;;;;;;;;;
1.527693;15885000;2425;;;;;;;;;;;;;;
1.530193;15887500;2427;;;;;;;;;;;;;;
1.532693;15890000;2426;;;;;;;;;;;;;;
1.535193;15892500;2424;;;;;;;;;;;;;;
1.537693;15895000;2424;;;;;;;;;;;;;;
1.540193;15897500;2427;;;;;;;;15898732;231.527;791.132;-359.294;7900.37;-1436.732;-665.848
1.542693;15900000;2443;15899170;405.147;899.893;51.999;1262.014;2776.826;3097.625;;;;;;;
1.545193;15902500;2457;;;;;;;;;;;;;;
1.547693;15905000;2472;;;;;;;;;;;;;;
1.550193;15907500;2475;;;;;;;;;;;;;;
1.552693;15910000;2474;;;;;;;;;;;;;;
1.555193;15912500;2462;;;;;;;;;;;;;;
1.557693;15915000;2462;;;;;;;;;;;;;;
1.560193;15917500;2472;;;;;;;;;;;;;;
1.562693;15920000;2486;;;;;;;;;;;;;;
1.565193;15922500;2494;;;;;;;;;;;;;;
1.567693;15925000;2509;;;;;;;;;;;;;;
1.570193;15927500;2510;;;;;;;;;;;;;;
1.572693;15930000;2507;15930507;406.679;904.345;53.962;1817.101;2522.922;3079.681;15930077;233.243;789.358;-363.875;2495.102;-1198.645;-245.368
1.575193;15932500;2508;;;;;;;;;;;;;;
1.577693;15935000;2506;;;;;;;;;;;;;;
1.580193;15937500;2510;;;;;;;;;;;;;;
1.582693;15940000;2525;;;;;;;;;;;;;;
1.585193;15942500;2539;;;;;;;;;;;;;;
1.587693;15945000;2552;;;;;;;;;;;;;;
1.590193;15947500;2558;;;;;;;;;;;;;;
1.592693;15950000;2558;;;;;;;;;;;;;;
1.595193;15952500;2555;;;;;;;;;;;;;;
1.597693;15955000;2556;;;;;;;;;;;;;;
1.600193;15957500;2569;;;;;;;;;;;;;;
1.602693;15960000;2583;;;;;;;;;;;;;;
1.605193;15962500;2599;15963489;409.299;905.171;54.356;2044.308;2481.651;2973.822;15963057;231.847;798.581;-363.792;-1904.029;-938.338;378.963
1.607693;15965000;2617;;;;;;;;;;;;;;
1.610193;15967500;2621;;;;;;;;;;;;;;
1.612693;15970000;2620;;;;;;;;;;;;;;
1.615193;15972500;2621;;;;;;;;;;;;;;
1.617693;15975000;2622;;;;;;;;;;;;;;
1.620193;15977500;2632;;;;;;;;;;;;;;
1.622693;15980000;2650;;;;;;;;;;;;;;
1.625193;15982500;2669;;;;;;;;;;;;;;
1.627693;15985000;2683;;;;;;;;;;;;;;
1.630193;15987500;2697;;;;;;;;;;;;;;
1.632693;15990000;2698;;;;;;;;;;;;;;
1.635193;15992500;2699;;;;;;;;;;;;;;
1.637693;15995000;2701;;;;;;;;;;;;;;
1.640193;15997500;2715;;;;;;;;;;;;;;
1.642693;16000000;2732;;;;;;;;;;;;;;
1.645193;16002500;2750;;;;;;;;;;;;;;
1.647693;16005000;2777;;;;;;;;16005850;235.84;811.484;-361.755;-8513.952;-514.734;1344.827
1.650193;16007500;2781;16006286;410.996;904.595;57.006;2133.718;2319.506;2657.568;;;;;;;
1.652693;16010000;2782;;;;;;;;;;;;;;
1.655193;16012500;2783;;;;;;;;;;;;;;
1.657693;16015000;2793;;;;;;;;;;;;;;
1.660193;16017500;2808;;;;;;;;;;;;;;
1.662693;16020000;2825;;;;;;;;;;;;;;
1.665193;16022500;2842;;;;;;;;;;;;;;
1.667693;16025000;2858;;;;;;;;;;;;;;
1.670193;16027500;2872;;;;;;;;;;;;;;
1.672693;16030000;2874;16031020;410.417;905.194;56.767;2251.907;2145.343;2210.127;16030588;236.632;819.667;-359.771;-15765.066;206.19;2336.773
1.675193;16032500;2873;;;;;;;;;;;;;;
1.677693;16035000;2875;;;;;;;;;;;;;;
1.680193;16037500;2879;;;;;;;;;;;;;;
1.682693;16040000;2903;;;;;;;;;;;;;;
1.685193;16042500;2921;;;;;;;;;;;;;;
1.687693;16045000;2927;;;;;;;;;;;;;;
1.690193;16047500;2939;;;;;;;;;;;;;;
1.692693;16050000;2942;;;;;;;;;;;;;;
1.695193;16052500;2940;;;;;;;;;;;;;;
1.697693;16055000;2941;;;;;;;;;;;;;;
1.700193;16057500;2953;;;;;;;;;;;;;;
1.702693;16060000;2969;;;;;;;;;;;;;;
1.705193;16062500;2986;;;;;;;;;;;;;;
1.707693;16065000;3000;;;;;;;;;;;;;;
1.710193;16067500;3006;;;;;;;;;;;;;;
1.712693;16070000;3005;;;;;;;;;;;;;;
1.715193;16072500;3003;16072240;410.405;907.575;54.301;2400.936;1978.576;2006.433;16071810;234.841;817.864;-343.021;-21231.75;717.818;2965.872
1.717693;16075000;3005;;;;;;;;;;;;;;
1.720193;16077500;3016;;;;;;;;;;;;;;
1.722693;16080000;3031;;;;;;;;;;;;;;
1.725193;16082500;3048;;;;;;;;;;;;;;
1.727693;16085000;3063;;;;;;;;;;;;;;
1.730193;16087500;3068;;;;;;;;;;;;;;
1.732693;16090000;3067;;;;;;;;;;;;;;
1.735193;16092500;3066;;;;;;;;;;;;;;
1.737693;16095000;3064;;;;;;;;;;;;;;
1.740193;16097500;3068;;;;;;;;;;;;;;
1.742693;16100000;3086;;;;;;;;;;;;;;
1.745193;16102500;3101;;;;;;;;;;;;;;
1.747693;16105000;3116;16105228;413.278;904.781;54.148;2585.389;1784.272;1704.861;16104791;236.684;836.073;-333.892;-26479.35;1783.99;3796.704
1.750193;16107500;3119;;;;;;;;;;;;;;
1.752693;16110000;3119;;;;;;;;;;;;;;
1.755193;16112500;3117;;;;;;;;;;;;;;
1.757693;16115000;3114;;;;;;;;;;;;;;
1.760193;16117500;3119;;;;;;;;;;;;;;
1.762693;16120000;3134;;;;;;;;;;;;;;
1.765193;16122500;3148;;;;;;;;;;;;;;
1.767693;16125000;3160;;;;;;;;;;;;;;
1.770193;16127500;3165;;;;;;;;;;;;;;
1.772693;16130000;3162;;;;;;;;;;;;;;
1.775193;16132500;3160;16131702;414.708;904.322;48.494;2893.62;1252.746;1162.431;16131272;236.031;843.973;-327.018;-32937.633;2998.541;4483.181
1.777693;16135000;3160;;;;;;;;;;;;;;
1.780193;16137500;3165;;;;;;;;;;;;;;
1.782693;16140000;3177;;;;;;;;;;;;;;
1.785193;16142500;3184;;;;;;;;;;;;;;
1.787693;16145000;3199;;;;;;;;;;;;;;
1.790193;16147500;3209;;;;;;;;;;;;;;
1.792693;16150000;3207;;;;;;;;;;;;;;
1.795193;16152500;3197;;;;;;;;;;;;;;
1.797693;16155000;3194;;;;;;;;;;;;;;
1.800193;16157500;3196;;;;;;;;;;;;;;
1.802693;16160000;3206;;;;;;;;;;;;;;
1.805193;16162500;3214;;;;;;;;;;;;;;
1.807693;16165000;3227;;;;;;;;;;;;;;
1.810193;16167500;3229;;;;;;;;;;;;;;
1.812693;16170000;3228;16169723;414.487;903.27;42.726;1684.501;923.234;1029.934;16169289;233.697;832.054;-307.367;-37400.438;3602.426;4635.709
1.815193;16172500;3222;;;;;;;;;;;;;;
1.817693;16175000;3212;;;;;;;;;;;;;;
1.820193;16177500;3212;;;;;;;;;;;;;;
1.822693;16180000;3223;;;;;;;;;;;;;;
1.825193;16182500;3228;;;;;;;;;;;;;;
1.827693;16185000;3240;;;;;;;;;;;;;;
1.830193;16187500;3241;;;;;;;;;;;;;;
1.832693;16190000;3231;;;;;;;;;;;;;;
1.835193;16192500;3227;;;;;;;;;;;;;;
1.837693;16195000;3224;;;;;;;;;;;;;;
1.840193;16197500;3224;;;;;;;;;;;;;;
1.842693;16200000;3258;;;;;;;;;;;;;;
1.845193;16202500;3241;16202704;412.301;901.074;44.86;1492.651;721.322;804.313;16202269;235.151;834.189;-279.847;-37068.227;3534.742;5235.173
1.847693;16205000;3256;;;;;;;;;;;;;;
1.850193;16207500;3248;;;;;;;;;;;;;;
1.852693;16210000;3246;;;;;;;;;;;;;;
1.855193;16212500;3240;;;;;;;;;;;;;;
1.857693;16215000;3228;;;;;;;;;;;;;;
1.860193;16217500;3231;;;;;;;;;;;;;;
1.862693;16220000;3243;;;;;;;;;;;;;;
1.865193;16222500;3257;;;;;;;;;;;;;;
1.867693;16225000;3261;;;;;;;;;;;;;;
1.870193;16227500;3263;;;;;;;;;;;;;;
1.872693;16230000;3261;;;;;;;;;;;;;;
1.875193;16232500;3256;16232301;413.865;903.131;41.733;1376.894;300.693;242.159;16231869;242.206;835.362;-264.342;-37946.566;3599.068;5674.727
1.877693;16235000;3245;;;;;;;;;;;;;;
1.880193;16237500;3244;;;;;;;;;;;;;;
1.882693;16240000;3256;;;;;;;;;;;;;;
1.885193;16242500;3263;;;;;;;;;;;;;;
1.887693;16245000;3275;;;;;;;;;;;;;;
1.890193;16247500;3278;;;;;;;;;;;;;;
1.892693;16250000;3273;;;;;;;;;;;;;;
1.895193;16252500;3259;;;;;;;;;;;;;;
1.897693;16255000;3255;;;;;;;;;;;;;;
1.900193;16257500;3255;;;;;;;;;;;;;;
1.902693;16260000;3259;;;;;;;;;;;;;;
1.905193;16262500;3272;;;;;;;;;;;;;;
1.907693;16265000;3278;;;;;;;;;;;;;;
1.910193;16267500;3277;16268486;414.546;899.875;41.445;423.424;258.096;286.927;16268055;245.547;825.485;-242.646;-37718.301;3567.427;5860.866
1.912693;16270000;3272;;;;;;;;;;;;;;
1.915193;16272500;3260;;;;;;;;;;;;;;
1.917693;16275000;3247;;;;;;;;;;;;;;
1.920193;16277500;3245;;;;;;;;;;;;;;
1.922693;16280000;3246;;;;;;;;;;;;;;
1.925193;16282500;3258;;;;;;;;;;;;;;
1.927693;16285000;3262;;;;;;;;;;;;;;
1.930193;16287500;3261;;;;;;;;;;;;;;
1.932693;16290000;3255;;;;;;;;;;;;;;
1.935193;16292500;3239;;;;;;;;;;;;;;
1.937693;16295000;3225;;;;;;;;;;;;;;
1.940193;16297500;3213;;;;;;;;;;;;;;
1.942693;16300000;3214;;;;;;;;;;;;;;
1.945193;16302500;3224;;;;;;;;;;;;;;
1.947693;16305000;3225;;;;;;;;;;;;;;
1.950193;16307500;3223;;;;;;;;;;;;;;
1.952693;16310000;3208;16311200;414.333;898.137;43.93;806.94;57.941;318.08;16310762;250.685;831.821;-221.199;-34861.574;3025.493;6314.635
1.955193;16312500;3191;;;;;;;;;;;;;;
1.957693;16315000;3175;;;;;;;;;;;;;;
1.960193;16317500;3164;;;;;;;;;;;;;;
1.962693;16320000;3161;;;;;;;;;;;;;;
1.965193;16322500;3163;;;;;;;;;;;;;;
1.967693;16325000;3166;;;;;;;;;;;;;;
1.970193;16327500;3161;;;;;;;;;;;;;;
1.972693;16330000;3149;;;;;;;;;;;;;;
1.975193;16332500;3131;;;;;;;;;;;;;;
1.977693;16335000;3113;;;;;;;;;;;;;;
1.980193;16337500;3101;;;;;;;;;;;;;;
1.982693;16340000;3099;;;;;;;;;;;;;;
1.985193;16342500;3099;;;;;;;;;;;;;;
1.987693;16345000;3101;;;;;;;;;;;;;;
1.990193;16347500;3097;;;;;;;;;;;;;;
1.992693;16350000;3083;;;;;;;;;;;;;;
1.995193;16352500;3065;;;;;;;;16353381;256.109;835.523;-201.599;-33168.809;2783.656;6423.715
1.997693;16355000;3050;16353811;415.815;897.711;43.795;750.843;-75.331;441.301;;;;;;;
2.000193;16357500;3035;;;;;;;;;;;;;;
2.002693;16360000;3033;;;;;;;;;;;;;;
2.005193;16362500;3035;;;;;;;;;;;;;;
2.007693;16365000;3035;;;;;;;;;;;;;;
2.010193;16367500;3022;;;;;;;;;;;;;;
2.012693;16370000;3007;;;;;;;;;;;;;;
2.015193;16372500;2991;;;;;;;;;;;;;;
2.017693;16375000;2972;;;;;;;;;;;;;;
2.020193;16377500;2957;;;;;;;;;;;;;;
2.022693;16380000;2954;;;;;;;;;;;;;;
2.025193;16382500;2953;;;;;;;;;;;;;;
2.027693;16385000;2943;;;;;;;;16386189;260.085;838.191;-182.387;-31230.805;2483.035;6558.404
2.030193;16387500;2938;16386626;415.819;897.081;44.759;547.489;-117.939;581.986;;;;;;;
2.032693;16390000;2921;;;;;;;;;;;;;;
2.035193;16392500;2893;;;;;;;;;;;;;;
2.037693;16395000;2874;;;;;;;;;;;;;;
2.040193;16397500;2859;;;;;;;;;;;;;;
2.042693;16400000;2857;;;;;;;;;;;;;;
2.045193;16402500;2845;;;;;;;;;;;;;;
2.047693;16405000;2844;;;;;;;;;;;;;;
2.050193;16407500;2830;;;;;;;;;;;;;;
2.052693;16410000;2814;;;;;;;;;;;;;;
2.055193;16412500;2794;;;;;;;;;;;;;;
2.057693;16415000;2775;;;;;;;;;;;;;;
2.060193;16417500;2761;;;;;;;;;;;;;;
2.062693;16420000;2749;16419512;416.878;896.159;46.639;736.239;-189.917;750.199;16419082;265.704;845.582;-162.819;-28910.201;2249.509;6361.734
2.065193;16422500;2746;;;;;;;;;;;;;;
2.067693;16425000;2744;;;;;;;;;;;;;;
2.070193;16427500;2732;;;;;;;;;;;;;;
2.072693;16430000;2715;;;;;;;;;;;;;;
2.075193;16432500;2686;;;;;;;;;;;;;;
2.077693;16435000;2670;;;;;;;;;;;;;;
2.080193;16437500;2655;;;;;;;;;;;;;;
2.082693;16440000;2650;;;;;;;;;;;;;;
2.085193;16442500;2648;;;;;;;;;;;;;;
2.087693;16445000;2637;;;;;;;;;;;;;;
2.090193;16447500;2635;;;;;;;;;;;;;;
2.092693;16450000;2619;;;;;;;;;;;;;;
2.095193;16452500;2591;16452419;417.579;898.437;46.515;897.615;-236.421;792.314;16451974;269.383;851.743;-147.748;-27399.504;2215.783;5955.709
2.097693;16455000;2573;;;;;;;;;;;;;;
2.100193;16457500;2556;;;;;;;;;;;;;;
2.102693;16460000;2552;;;;;;;;;;;;;;
2.105193;16462500;2543;;;;;;;;;;;;;;
2.107693;16465000;2550;;;;;;;;;;;;;;
2.110193;16467500;2537;;;;;;;;;;;;;;
2.112693;16470000;2520;;;;;;;;;;;;;;
2.115193;16472500;2494;;;;;;;;;;;;;;
2.117693;16475000;2477;;;;;;;;;;;;;;
2.120193;16477500;2461;;;;;;;;;;;;;;
2.122693;16480000;2456;;;;;;;;;;;;;;
2.125193;16482500;2455;16483656;418.3;898.777;46.001;666.797;-232.475;852.886;16483233;272.268;852.112;-132.596;-26013.779;2121.619;5393.674
2.127693;16485000;2455;;;;;;;;;;;;;;
2.130193;16487500;2442;;;;;;;;;;;;;;
2.132693;16490000;2426;;;;;;;;;;;;;;
2.135193;16492500;2400;;;;;;;;;;;;;;
2.137693;16495000;2382;;;;;;;;;;;;;;
2.140193;16497500;2367;;;;;;;;;;;;;;
2.142693;16500000;2351;;;;;;;;;;;;;;
2.145193;16502500;2363;;;;;;;;;;;;;;
2.147693;16505000;2361;;;;;;;;;;;;;;
2.150193;16507500;2347;;;;;;;;;;;;;;
2.152693;16510000;2333;;;;;;;;;;;;;;
2.155193;16512500;2315;;;;;;;;;;;;;;
2.157693;16515000;2295;;;;;;;;16516126;275.631;853.633;-117.542;-23742.277;1854.975;4704.428
2.160193;16517500;2280;16516571;418.766;897.85;46.891;642.207;-207.726;913.929;;;;;;;
2.162693;16520000;2269;;;;;;;;;;;;;;
2.165193;16522500;2269;;;;;;;;;;;;;;
2.167693;16525000;2280;;;;;;;;;;;;;;
2.170193;16527500;2265;;;;;;;;;;;;;;
2.172693;16530000;2249;;;;;;;;;;;;;;
2.175193;16532500;2231;;;;;;;;;;;;;;
2.177693;16535000;2204;;;;;;;;;;;;;;
2.180193;16537500;2190;;;;;;;;;;;;;;
2.182693;16540000;2189;;;;;;;;;;;;;;
2.185193;16542500;2188;;;;;;;;;;;;;;
2.187693;16545000;2188;;;;;;;;;;;;;;
2.190193;16547500;2185;;;;;;;;;;;;;;
2.192693;16550000;2167;16549448;418.799;898.518;47.109;789.909;-127.34;949.17;16549018;276.959;857.306;-104.942;-20303.789;1423.602;3791.519
2.195193;16552500;2151;;;;;;;;;;;;;;
2.197693;16555000;2135;;;;;;;;;;;;;;
2.200193;16557500;2121;;;;;;;;;;;;;;
2.202693;16560000;2120;;;;;;;;;;;;;;
2.205193;16562500;2119;;;;;;;;;;;;;;
2.207693;16565000;2122;;;;;;;;;;;;;;
2.210193;16567500;2109;;;;;;;;;;;;;;
2.212693;16570000;2095;;;;;;;;;;;;;;
2.215193;16572500;2076;;;;;;;;;;;;;;
2.217693;16575000;2061;;;;;;;;;;;;;;
2.220193;16577500;2056;;;;;;;;;;;;;;
2.222693;16580000;2046;;;;;;;;;;;;;;
2.225193;16582500;2047;16582347;420.1;898.519;47.943;593.788;-62.348;970.837;16581913;277.653;860.733;-94.693;-17276.1;1042.234;2887.068
2.227693;16585000;2042;;;;;;;;;;;;;;
2.230193;16587500;2045;;;;;;;;;;;;;;
2.232693;16590000;2040;;;;;;;;;;;;;;
2.235193;16592500;2023;;;;;;;;;;;;;;
2.237693;16595000;1999;;;;;;;;;;;;;;
2.240193;16597500;1994;;;;;;;;;;;;;;
2.242693;16600000;1993;;;;;;;;;;;;;;
2.245193;16602500;1994;;;;;;;;;;;;;;
2.247693;16605000;1996;;;;;;;;;;;;;;
2.250193;16607500;1995;;;;;;;;;;;;;;
2.252693;16610000;1982;;;;;;;;;;;;;;
2.255193;16612500;1965;;;;;;;;;;;;;;
2.257693;16615000;1948;16615063;420.683;899.227;49.151;651.599;-100.793;884.67;16614633;280.119;863.245;-84.511;-14688.982;528.56;2093.902
2.260193;16617500;1943;;;;;;;;;;;;;;
2.262693;16620000;1943;;;;;;;;;;;;;;
2.265193;16622500;1936;;;;;;;;;;;;;;
2.267693;16625000;1947;;;;;;;;;;;;;;
2.270193;16627500;1946;;;;;;;;;;;;;;
2.272693;16630000;1931;;;;;;;;;;;;;;
2.275193;16632500;1915;;;;;;;;;;;;;;
2.277693;16635000;1902;;;;;;;;;;;;;;
2.280193;16637500;1896;;;;;;;;;;;;;;
2.282693;16640000;1895;;;;;;;;;;;;;;
2.285193;16642500;1899;;;;;;;;;;;;;;
2.287693;16645000;1902;;;;;;;;;;;;;;
2.290193;16647500;1899;;;;;;;;;;;;;;
2.292693;16650000;1887;;;;;;;;;;;;;;
2.295193;16652500;1880;;;;;;;;;;;;;;
2.297693;16655000;1863;;;;;;;;;;;;;;
2.300193;16657500;1852;16657691;422.292;896.862;51.897;110.206;-185.879;771.749;16657251;278.99;869.158;-80.938;-10918.283;-168.118;1267.769
2.302693;16660000;1853;;;;;;;;;;;;;;
2.305193;16662500;1855;;;;;;;;;;;;;;
2.307693;16665000;1864;;;;;;;;;;;;;;
2.310193;16667500;1864;;;;;;;;;;;;;;
2.312693;16670000;1853;;;;;;;;;;;;;;
2.315193;16672500;1836;;;;;;;;;;;;;;
2.317693;16675000;1822;;;;;;;;;;;;;;
2.320193;16677500;1820;;;;;;;;;;;;;;
2.322693;16680000;1820;;;;;;;;;;;;;;
2.325193;16682500;1832;;;;;;;;;;;;;;
2.327693;16685000;1833;;;;;;;;;;;;;;
2.330193;16687500;1833;;;;;;;;;;;;;;
2.332693;16690000;1820;16690487;423.137;893.621;52.261;-149.491;-222.96;732.724;16690059;280.443;873.133;-75.263;-7018.494;-1053.087;244.506
2.335193;16692500;1804;;;;;;;;;;;;;;
2.337693;16695000;1799;;;;;;;;;;;;;;
2.340193;16697500;1788;;;;;;;;;;;;;;
2.342693;16700000;1789;;;;;;;;;;;;;;
2.345193;16702500;1800;;;;;;;;;;;;;;
2.347693;16705000;1804;;;;;;;;;;;;;;
2.350193;16707500;1803;;;;;;;;;;;;;;
2.352693;16710000;1790;;;;;;;;;;;;;;
2.355193;16712500;1784;;;;;;;;;;;;;;
2.357693;16715000;1770;;;;;;;;;;;;;;
2.360193;16717500;1767;;;;;;;;;;;;;;
2.362693;16720000;1769;;;;;;;;16721230;281.732;876.044;-74.257;-4144.507;-1818.558;-529.407
2.365193;16722500;1771;16721670;421.745;895.696;51.014;163.796;-414.374;714.463;;;;;;;
2.367693;16725000;1775;;;;;;;;;;;;;;
2.370193;16727500;1783;;;;;;;;;;;;;;
2.372693;16730000;1774;;;;;;;;;;;;;;
2.375193;16732500;1757;;;;;;;;;;;;;;
2.377693;16735000;1751;;;;;;;;;;;;;;
2.380193;16737500;1743;;;;;;;;;;;;;;
2.382693;16740000;1743;;;;;;;;;;;;;;
2.385193;16742500;1753;;;;;;;;;;;;;;
2.387693;16745000;1757;;;;;;;;;;;;;;
2.390193;16747500;1768;;;;;;;;;;;;;;
2.392693;16750000;1756;;;;;;;;;;;;;;
2.395193;16752500;1743;;;;;;;;;;;;;;
2.397693;16755000;1736;16754464;421.599;895.265;49.775;-95.082;-683.28;701.927;16754037;284.341;879.694;-66.457;-1118.031;-2671.317;-1072.562
2.400193;16757500;1726;;;;;;;;;;;;;;
2.402693;16760000;1737;;;;;;;;;;;;;;
2.405193;16762500;1739;;;;;;;;;;;;;;
2.407693;16765000;1743;;;;;;;;;;;;;;
2.410193;16767500;1751;;;;;;;;;;;;;;
2.412693;16770000;1739;;;;;;;;;;;;;;
2.415193;16772500;1735;;;;;;;;;;;;;;
2.417693;16775000;1722;;;;;;;;;;;;;;
2.420193;16777500;1711;;;;;;;;;;;;;;
2.422693;16780000;1720;;;;;;;;;;;;;;
2.425193;16782500;1725;;;;;;;;;;;;;;
2.427693;16785000;1737;;;;;;;;;;;;;;
2.430193;16787500;1736;16787370;421.887;895.617;53.13;654.298;-776.866;529.456;16786930;283.428;893.336;-70.942;377.683;-2719.751;-1177.309
2.432693;16790000;1736;;;;;;;;;;;;;;
2.435193;16792500;1722;;;;;;;;;;;;;;
2.437693;16795000;1710;;;;;;;;;;;;;;
2.440193;16797500;1705;;;;;;;;;;;;;;
2.442693;16800000;1709;;;;;;;;;;;;;;
2.445193;16802500;1720;;;;;;;;;;;;;;
2.447693;16805000;1726;;;;;;;;;;;;;;
2.450193;16807500;1726;;;;;;;;;;;;;;
2.452693;16810000;1721;;;;;;;;;;;;;;
2.455193;16812500;1708;;;;;;;;;;;;;;
2.457693;16815000;1703;;;;;;;;;;;;;;
2.460193;16817500;1691;;;;;;;;;;;;;;
2.462693;16820000;1695;16820083;422.301;895.415;51.541;273.333;-792.273;519.17;16819650;282.981;894.48;-73.269;134.361;-2837.076;-1163.068
2.465193;16822500;1705;;;;;;;;;;;;;;
2.467693;16825000;1711;;;;;;;;;;;;;;
2.470193;16827500;1720;;;;;;;;;;;;;;
2.472693;16830000;1710;;;;;;;;;;;;;;
2.475193;16832500;1703;;;;;;;;;;;;;;
2.477693;16835000;1688;;;;;;;;;;;;;;
2.480193;16837500;1679;;;;;;;;;;;;;;
2.482693;16840000;1688;;;;;;;;;;;;;;
2.485193;16842500;1693;;;;;;;;;;;;;;
2.487693;16845000;1704;;;;;;;;;;;;;;
2.490193;16847500;1709;;;;;;;;;;;;;;
2.492693;16850000;1706;;;;;;;;;;;;;;
2.495193;16852500;1693;16852808;421.609;892.24;50.44;-157.271;-645.472;601.712;16852368;282.862;891.462;-73.797;2050.893;-3225.035;-1427.352
2.497693;16855000;1679;;;;;;;;;;;;;;
2.500193;16857500;1675;;;;;;;;;;;;;;
2.502693;16860000;1678;;;;;;;;;;;;;;
2.505193;16862500;1694;;;;;;;;;;;;;;
2.507693;16865000;1696;;;;;;;;;;;;;;
2.510193;16867500;1705;;;;;;;;;;;;;;
2.512693;16870000;1693;;;;;;;;;;;;;;
2.515193;16872500;1689;;;;;;;;;;;;;;
2.517693;16875000;1673;;;;;;;;;;;;;;
2.520193;16877500;1672;;;;;;;;;;;;;;
2.522693;16880000;1675;;;;;;;;;;;;;;
2.525193;16882500;1679;;;;;;;;16883627;282.328;893.987;-75.719;5177.536;-3481.158;-1934.359
2.527693;16885000;1691;16884054;419.878;889.687;49.608;77.655;-519.136;732.626;;;;;;;
2.530193;16887500;1692;;;;;;;;;;;;;;
2.532693;16890000;1689;;;;;;;;;;;;;;
2.535193;16892500;1674;;;;;;;;;;;;;;
2.537693;16895000;1661;;;;;;;;;;;;;;
2.540193;16897500;1657;;;;;;;;;;;;;;
2.542693;16900000;1659;;;;;;;;;;;;;;
2.545193;16902500;1674;;;;;;;;;;;;;;
2.547693;16905000;1679;;;;;;;;;;;;;;
2.550193;16907500;1679;;;;;;;;;;;;;;
2.552693;16910000;1677;;;;;;;;;;;;;;
2.555193;16912500;1673;;;;;;;;;;;;;;
2.557693;16915000;1661;;;;;;;;;;;;;;
2.560193;16917500;1660;16916787;419.087;889.971;49.86;459.647;-478.304;857.432;16916347;281.229;901.955;-77.02;8474.659;-3921.351;-2405.079
2.562693;16920000;1662;;;;;;;;;;;;;;
2.565193;16922500;1676;;;;;;;;;;;;;;
2.567693;16925000;1678;;;;;;;;;;;;;;
2.570193;16927500;1689;;;;;;;;;;;;;;
2.572693;16930000;1688;;;;;;;;;;;;;;
2.575193;16932500;1676;;;;;;;;;;;;;;
2.577693;16935000;1662;;;;;;;;;;;;;;
2.580193;16937500;1656;;;;;;;;;;;;;;
2.582693;16940000;1672;;;;;;;;;;;;;;
2.585193;16942500;1677;;;;;;;;;;;;;;
2.587693;16945000;1690;;;;;;;;;;;;;;
2.590193;16947500;1695;;;;;;;;;;;;;;
2.592693;16950000;1690;16949587;420.312;889.978;51.479;271.289;-423.764;887.186;16949152;279.252;907.341;-83.85;10717.488;-4054.283;-3151.513
2.595193;16952500;1678;;;;;;;;;;;;;;
2.597693;16955000;1674;;;;;;;;;;;;;;
2.600193;16957500;1672;;;;;;;;;;;;;;
2.602693;16960000;1674;;;;;;;;;;;;;;
2.605193;16962500;1688;;;;;;;;;;;;;;
2.607693;16965000;1695;;;;;;;;;;;;;;
2.610193;16967500;1706;;;;;;;;;;;;;;
2.612693;16970000;1689;;;;;;;;;;;;;;
2.615193;16972500;1691;;;;;;;;;;;;;;
2.617693;16975000;1678;;;;;;;;;;;;;;
2.620193;16977500;1678;;;;;;;;;;;;;;
2.622693;16980000;1688;;;;;;;;;;;;;;
2.625193;16982500;1693;16982479;420.817;892.724;52.711;601.6;-438.451;766.701;16982047;278.508;912.963;-89.643;12356.863;-4530.131;-4029.062
2.627693;16985000;1705;;;;;;;;;;;;;;
2.630193;16987500;1708;;;;;;;;;;;;;;
2.632693;16990000;1707;;;;;;;;;;;;;;
2.635193;16992500;1704;;;;;;;;;;;;;;
2.637693;16995000;1692;;;;;;;;;;;;;;
2.640193;16997500;1691;;;;;;;;;;;;;;
2.642693;17000000;1693;;;;;;;;;;;;;;
2.645193;17002500;1707;;;;;;;;;;;;;;
2.647693;17005000;1719;;;;;;;;;;;;;;
2.650193;17007500;1724;;;;;;;;;;;;;;
2.652693;17010000;1721;;;;;;;;;;;;;;
2.655193;17012500;1710;;;;;;;;;;;;;;
2.657693;17015000;1705;17015375;421.114;895.222;52.204;813.02;-606.841;699.929;17014940;275.77;916.408;-97.788;12922.457;-4797.125;-4867.546
2.660193;17017500;1705;;;;;;;;;;;;;;
2.662693;17020000;1708;;;;;;;;;;;;;;
2.665193;17022500;1721;;;;;;;;;;;;;;
2.667693;17025000;1726;;;;;;;;;;;;;;
2.670193;17027500;1737;;;;;;;;;;;;;;
2.672693;17030000;1727;;;;;;;;;;;;;;
2.675193;17032500;1722;;;;;;;;;;;;;;
2.677693;17035000;1710;;;;;;;;;;;;;;
2.680193;17037500;1709;;;;;;;;;;;;;;
2.682693;17040000;1718;;;;;;;;;;;;;;
2.685193;17042500;1727;;;;;;;;;;;;;;
2.687693;17045000;1738;;;;;;;;;;;;;;
2.690193;17047500;1741;;;;;;;;;;;;;;
2.692693;17050000;1739;;;;;;;;;;;;;;
2.695193;17052500;1726;;;;;;;;;;;;;;
2.697693;17055000;1723;;;;;;;;;;;;;;
2.700193;17057500;1719;17058172;421.506;894.436;51.979;243.869;-645.624;912.557;17057732;273.047;914.648;-106.587;13825.084;-5081.831;-6141.419
2.702693;17060000;1722;;;;;;;;;;;;;;
2.705193;17062500;1735;;;;;;;;;;;;;;
2.707693;17065000;1743;;;;;;;;;;;;;;
2.710193;17067500;1752;;;;;;;;;;;;;;
2.712693;17070000;1743;;;;;;;;;;;;;;
2.715193;17072500;1737;;;;;;;;;;;;;;
2.717693;17075000;1724;;;;;;;;;;;;;;
2.720193;17077500;1722;;;;;;;;;;;;;;
2.722693;17080000;1735;;;;;;;;;;;;;;
2.725193;17082500;1737;;;;;;;;;;;;;;
2.727693;17085000;1740;;;;;;;;;;;;;;
2.730193;17087500;1751;;;;;;;;;;;;;;
2.732693;17090000;1743;17091141;419.774;896.41;52.644;663.926;-1147.53;1274.68;17090714;267.367;924.267;-114.056;14774.893;-5643.239;-7221.223
2.735193;17092500;1736;;;;;;;;;;;;;;
2.737693;17095000;1723;;;;;;;;;;;;;;
2.740193;17097500;1721;;;;;;;;;;;;;;
2.742693;17100000;1722;;;;;;;;;;;;;;
2.745193;17102500;1735;;;;;;;;;;;;;;
2.747693;17105000;1737;;;;;;;;;;;;;;
2.750193;17107500;1741;;;;;;;;;;;;;;
2.752693;17110000;1738;;;;;;;;;;;;;;
2.755193;17112500;1724;;;;;;;;;;;;;;
2.757693;17115000;1719;;;;;;;;;;;;;;
2.760193;17117500;1711;;;;;;;;;;;;;;
2.762693;17120000;1720;;;;;;;;;;;;;;
2.765193;17122500;1724;17122672;420.617;900.462;50.274;790.854;-1919.216;1568.383;17122232;261.807;925.597;-120.333;14096.085;-6186.202;-7975.787
2.767693;17125000;1738;;;;;;;;;;;;;;
2.770193;17127500;1739;;;;;;;;;;;;;;
2.772693;17130000;1736;;;;;;;;;;;;;;
2.775193;17132500;1723;;;;;;;;;;;;;;
2.777693;17135000;1712;;;;;;;;;;;;;;
2.780193;17137500;1708;;;;;;;;;;;;;;
2.782693;17140000;1710;;;;;;;;;;;;;;
2.785193;17142500;1724;;;;;;;;;;;;;;
2.787693;17145000;1736;;;;;;;;;;;;;;
2.790193;17147500;1737;;;;;;;;;;;;;;
2.792693;17150000;1735;;;;;;;;;;;;;;
2.795193;17152500;1724;;;;;;;;;;;;;;
2.797693;17155000;1710;17155813;421.064;897.413;47.248;803.812;-2601.13;1990.901;17155385;257.08;918.589;-127.846;14424.655;-6601.829;-8967.373
2.800193;17157500;1708;;;;;;;;;;;;;;
2.802693;17160000;1720;;;;;;;;;;;;;;
2.805193;17162500;1723;;;;;;;;;;;;;;
2.807693;17165000;1736;;;;;;;;;;;;;;
2.810193;17167500;1741;;;;;;;;;;;;;;
2.812693;17170000;1738;;;;;;;;;;;;;;
2.815193;17172500;1724;;;;;;;;;;;;;;
2.817693;17175000;1712;;;;;;;;;;;;;;
2.820193;17177500;1719;;;;;;;;;;;;;;
2.822693;17180000;1721;;;;;;;;;;;;;;
2.825193;17182500;1726;;;;;;;;;;;;;;
2.827693;17185000;1738;;;;;;;;;;;;;;
2.830193;17187500;1742;;;;;;;;17188539;249.868;920.495;-130.635;15082.859;-6854.925;-9067.191
2.832693;17190000;1738;17188979;422.337;901.087;47.704;2029.746;-3306.261;2104.856;;;;;;;
2.835193;17192500;1724;;;;;;;;;;;;;;
2.837693;17195000;1720;;;;;;;;;;;;;;
2.840193;17197500;1718;;;;;;;;;;;;;;
2.842693;17200000;1721;;;;;;;;;;;;;;
2.845193;17202500;1725;;;;;;;;;;;;;;
2.847693;17205000;1739;;;;;;;;;;;;;;
2.850193;17207500;1741;;;;;;;;;;;;;;
2.852693;17210000;1736;;;;;;;;;;;;;;
2.855193;17212500;1726;;;;;;;;;;;;;;
2.857693;17215000;1711;;;;;;;;;;;;;;
2.860193;17217500;1711;;;;;;;;;;;;;;
2.862693;17220000;1720;;;;;;;;;;;;;;
2.865193;17222500;1735;17222207;423.681;900.41;45.605;2353.509;-3528.135;2068.739;17221780;245.762;915.158;-137.236;13857.528;-6534.054;-8484.77
2.867693;17225000;1739;;;;;;;;;;;;;;
2.870193;17227500;1741;;;;;;;;;;;;;;
2.872693;17230000;1741;;;;;;;;;;;;;;
2.875193;17232500;1736;;;;;;;;;;;;;;
2.877693;17235000;1724;;;;;;;;;;;;;;
2.880193;17237500;1723;;;;;;;;;;;;;;
2.882693;17240000;1725;;;;;;;;;;;;;;
2.885193;17242500;1739;;;;;;;;;;;;;;
2.887693;17245000;1752;;;;;;;;;;;;;;
2.890193;17247500;1756;;;;;;;;;;;;;;
2.892693;17250000;1754;;;;;;;;;;;;;;
2.895193;17252500;1743;;;;;;;;;;;;;;
2.897693;17255000;1737;17255459;424.444;893.106;43.801;2300.583;-3642.666;2466.677;17255019;241.819;909.513;-145.911;13751.776;-6386.726;-8222.844
2.900193;17257500;1737;;;;;;;;;;;;;;
2.902693;17260000;1738;;;;;;;;;;;;;;
2.905193;17262500;1752;;;;;;;;;;;;;;
2.907693;17265000;1767;;;;;;;;;;;;;;
2.910193;17267500;1768;;;;;;;;;;;;;;
2.912693;17270000;1768;;;;;;;;;;;;;;
2.915193;17272500;1755;;;;;;;;;;;;;;
2.917693;17275000;1752;;;;;;;;;;;;;;
2.920193;17277500;1740;;;;;;;;;;;;;;
2.922693;17280000;1754;;;;;;;;;;;;;;
2.925193;17282500;1758;;;;;;;;;;;;;;
2.927693;17285000;1771;;;;;;;;;;;;;;
2.930193;17287500;1776;17287047;425.438;890.735;42.404;2774.429;-3968.908;2451.843;17286625;239.073;915.601;-152.182;14078.312;-6602.452;-7929.389
2.932693;17290000;1774;;;;;;;;;;;;;;
2.935193;17292500;1768;;;;;;;;;;;;;;
2.937693;17295000;1758;;;;;;;;;;;;;;
2.940193;17297500;1757;;;;;;;;;;;;;;
2.942693;17300000;1768;;;;;;;;;;;;;;
2.945193;17302500;1767;;;;;;;;;;;;;;
2.947693;17305000;1787;;;;;;;;;;;;;;
2.950193;17307500;1790;;;;;;;;;;;;;;
2.952693;17310000;1785;;;;;;;;;;;;;;
2.955193;17312500;1775;;;;;;;;;;;;;;
2.957693;17315000;1772;;;;;;;;;;;;;;
2.960193;17317500;1772;;;;;;;;;;;;;;
2.962693;17320000;1775;17320311;428.566;894.566;38.588;3231.582;-4407.025;2458.313;17319865;231.725;916.175;-159.652;12861.209;-6259.205;-7451.107
2.965193;17322500;1790;;;;;;;;;;;;;;
2.967693;17325000;1804;;;;;;;;;;;;;;
2.970193;17327500;1806;;;;;;;;;;;;;;
2.972693;17330000;1806;;;;;;;;;;;;;;
2.975193;17332500;1803;;;;;;;;;;;;;;
2.977693;17335000;1800;;;;;;;;;;;;;;
2.980193;17337500;1800;;;;;;;;;;;;;;
2.982693;17340000;1803;;;;;;;;;;;;;;
2.985193;17342500;1819;;;;;;;;;;;;;;
2.987693;17345000;1833;;;;;;;;;;;;;;
2.990193;17347500;1837;;;;;;;;;;;;;;
2.992693;17350000;1836;;;;;;;;;;;;;;
2.995193;17352500;1832;;;;;;;;;;;;;;
2.997693;17355000;1823;;;;;;;;;;;;;;
3.000193;17357500;1830;;;;;;;;;;;;;;
3.002693;17360000;1834;;;;;;;;;;;;;;
3.005193;17362500;1848;17363435;430.294;890.915;38.147;3139.128;-4389.236;2719.085;17363005;228.904;914.335;-164.986;12599.211;-6134.369;-6992.364
3.007693;17365000;1855;;;;;;;;;;;;;;
3.010193;17367500;1868;;;;;;;;;;;;;;
3.012693;17370000;1866;;;;;;;;;;;;;;
3.015193;17372500;1864;;;;;;;;;;;;;;
3.017693;17375000;1864;;;;;;;;;;;;;;
3.020193;17377500;1864;;;;;;;;;;;;;;
3.022693;17380000;1866;;;;;;;;;;;;;;
3.025193;17382500;1880;;;;;;;;;;;;;;
3.027693;17385000;1896;;;;;;;;;;;;;;
3.030193;17387500;1901;;;;;;;;;;;;;;
3.032693;17390000;1899;;;;;;;;;;;;;;
3.035193;17392500;1897;;;;;;;;;;;;;;
3.037693;17395000;1896;;;;;;;;17396247;226.682;923.427;-170.943;12155.625;-5873.588;-6415.683
3.040193;17397500;1896;17396684;432.069;889.124;38.332;3652.422;-4605.087;2517.068;;;;;;;
3.042693;17400000;1901;;;;;;;;;;;;;;
3.045193;17402500;1916;;;;;;;;;;;;;;
3.047693;17405000;1930;;;;;;;;;;;;;;
3.050193;17407500;1933;;;;;;;;;;;;;;
3.052693;17410000;1934;;;;;;;;;;;;;;
3.055193;17412500;1931;;;;;;;;;;;;;;
3.057693;17415000;1918;;;;;;;;;;;;;;
3.060193;17417500;1928;;;;;;;;;;;;;;
3.062693;17420000;1919;;;;;;;;;;;;;;
3.065193;17422500;1949;;;;;;;;;;;;;;
3.067693;17425000;1963;;;;;;;;17426194;224.132;924.5;-176.609;10895.531;-5639.846;-6352.149
3.070193;17427500;1961;17426624;432.913;889.057;32.7;4213.551;-4808.395;2159.777;;;;;;;
3.072693;17430000;1976;;;;;;;;;;;;;;
3.075193;17432500;1965;;;;;;;;;;;;;;
3.077693;17435000;1963;;;;;;;;;;;;;;
3.080193;17437500;1951;;;;;;;;;;;;;;
3.082693;17440000;1975;;;;;;;;;;;;;;
3.085193;17442500;1983;;;;;;;;;;;;;;
3.087693;17445000;2008;;;;;;;;;;;;;;
3.090193;17447500;2009;;;;;;;;;;;;;;
3.092693;17450000;2013;;;;;;;;;;;;;;
3.095193;17452500;2009;;;;;;;;;;;;;;
3.097693;17455000;2008;;;;;;;;;;;;;;
3.100193;17457500;2000;;;;;;;;;;;;;;
3.102693;17460000;2013;;;;;;;;;;;;;;
3.105193;17462500;2029;17463165;434.484;892.02;28.424;5129.873;-5025.163;1805.038;17462728;218.745;925.861;-182.242;10958.88;-5654.916;-6816.354
3.107693;17465000;2042;;;;;;;;;;;;;;
3.110193;17467500;2058;;;;;;;;;;;;;;
3.112693;17470000;2056;;;;;;;;;;;;;;
3.115193;17472500;2046;;;;;;;;;;;;;;
3.117693;17475000;2043;;;;;;;;;;;;;;
3.120193;17477500;2046;;;;;;;;;;;;;;
3.122693;17480000;2057;;;;;;;;;;;;;;
3.125193;17482500;2073;;;;;;;;;;;;;;
3.127693;17485000;2088;;;;;;;;;;;;;;
3.130193;17487500;2093;;;;;;;;;;;;;;
3.132693;17490000;2093;;;;;;;;;;;;;;
3.135193;17492500;2091;;;;;;;;;;;;;;
3.137693;17495000;2087;;;;;;;;17495968;213.786;928.929;-188.026;10821.748;-5685.857;-7263.474
3.140193;17497500;2087;17496398;434.439;893.675;24.227;6355.629;-5089.342;1239.661;;;;;;;
3.142693;17500000;2093;;;;;;;;;;;;;;
3.145193;17502500;2108;;;;;;;;;;;;;;
3.147693;17505000;2123;;;;;;;;;;;;;;
3.150193;17507500;2135;;;;;;;;;;;;;;
3.152693;17510000;2137;;;;;;;;;;;;;;
3.155193;17512500;2126;;;;;;;;;;;;;;
3.157693;17515000;2123;;;;;;;;;;;;;;
3.160193;17517500;2123;;;;;;;;;;;;;;
3.162693;17520000;2135;;;;;;;;;;;;;;
3.165193;17522500;2142;;;;;;;;;;;;;;
3.167693;17525000;2158;;;;;;;;;;;;;;
3.170193;17527500;2173;17528005;435.94;892.826;21.113;7458.848;-5270.625;1100.678;17527573;211.02;930.709;-193.911;10682.723;-5647.439;-7581.05
3.172693;17530000;2173;;;;;;;;;;;;;;
3.175193;17532500;2143;;;;;;;;;;;;;;
3.177693;17535000;2168;;;;;;;;;;;;;;
3.180193;17537500;2168;;;;;;;;;;;;;;
3.182693;17540000;2172;;;;;;;;;;;;;;
3.185193;17542500;2188;;;;;;;;;;;;;;
3.187693;17545000;2203;;;;;;;;;;;;;;
3.190193;17547500;2216;;;;;;;;;;;;;;
3.192693;17550000;2216;;;;;;;;;;;;;;
3.195193;17552500;2206;;;;;;;;;;;;;;
3.197693;17555000;2205;;;;;;;;;;;;;;
3.200193;17557500;2202;;;;;;;;;;;;;;
3.202693;17560000;2215;17561249;437.494;891.305;17.672;8720.405;-5672.531;937.582;17560814;207.082;934.468;-201.259;10501.211;-5684.442;-7989.06
3.205193;17562500;2231;;;;;;;;;;;;;;
3.207693;17565000;2238;;;;;;;;;;;;;;
3.210193;17567500;2249;;;;;;;;;;;;;;
3.212693;17570000;2250;;;;;;;;;;;;;;
3.215193;17572500;2248;;;;;;;;;;;;;;
3.217693;17575000;2234;;;;;;;;;;;;;;
3.220193;17577500;2235;;;;;;;;;;;;;;
3.222693;17580000;2248;;;;;;;;;;;;;;
3.225193;17582500;2255;;;;;;;;;;;;;;
3.227693;17585000;2268;;;;;;;;;;;;;;
3.230193;17587500;2280;;;;;;;;;;;;;;
3.232693;17590000;2280;;;;;;;;;;;;;;
3.235193;17592500;2271;;;;;;;;;;;;;;
3.237693;17595000;2265;17594399;437.207;889.05;11.475;9790.26;-5912.592;698.203;17593967;202.48;932.482;-206.471;10767.588;-5993.033;-8787.919
3.240193;17597500;2264;;;;;;;;;;;;;;
3.242693;17600000;2268;;;;;;;;;;;;;;
3.245193;17602500;2284;;;;;;;;;;;;;;
3.247693;17605000;2296;;;;;;;;;;;;;;
3.250193;17607500;2300;;;;;;;;;;;;;;
3.252693;17610000;2301;;;;;;;;;;;;;;
3.255193;17612500;2298;;;;;;;;;;;;;;
3.257693;17615000;2287;;;;;;;;;;;;;;
3.260193;17617500;2285;;;;;;;;;;;;;;
3.262693;17620000;2295;;;;;;;;;;;;;;
3.265193;17622500;2300;;;;;;;;;;;;;;
3.267693;17625000;2314;;;;;;;;;;;;;;
3.270193;17627500;2316;17627551;435.404;889.341;4.533;9134.935;-7828.524;676.855;17627121;197.389;931.852;-210.201;10430.021;-6393.818;-9419.96
3.272693;17630000;2319;;;;;;;;;;;;;;
3.275193;17632500;2312;;;;;;;;;;;;;;
3.277693;17635000;2300;;;;;;;;;;;;;;
3.280193;17637500;2301;;;;;;;;;;;;;;
3.282693;17640000;2312;;;;;;;;;;;;;;
3.285193;17642500;2315;;;;;;;;;;;;;;
3.287693;17645000;2331;;;;;;;;;;;;;;
3.290193;17647500;2335;;;;;;;;;;;;;;
3.292693;17650000;2332;;;;;;;;;;;;;;
3.295193;17652500;2327;;;;;;;;;;;;;;
3.297693;17655000;2316;;;;;;;;;;;;;;
3.300193;17657500;2313;;;;;;;;;;;;;;
3.302693;17660000;2316;;;;;;;;;;;;;;
3.305193;17662500;2328;;;;;;;;;;;;;;
3.307693;17665000;2335;;;;;;;;;;;;;;
3.310193;17667500;2346;;;;;;;;;;;;;;
3.312693;17670000;2336;17670532;437.192;889.654;-6.076;8353.562;-7881.598;473.262;17670087;192.399;923.622;-214.6;9922.52;-6064.94;-9414.024
3.315193;17672500;2331;;;;;;;;;;;;;;
3.317693;17675000;2319;;;;;;;;;;;;;;
3.320193;17677500;2315;;;;;;;;;;;;;;
3.322693;17680000;2326;;;;;;;;;;;;;;
3.325193;17682500;2333;;;;;;;;;;;;;;
3.327693;17685000;2344;;;;;;;;;;;;;;
3.330193;17687500;2349;;;;;;;;;;;;;;
3.332693;17690000;2350;;;;;;;;;;;;;;
3.335193;17692500;2346;;;;;;;;;;;;;;
3.337693;17695000;2344;;;;;;;;;;;;;;
3.340193;17697500;2345;;;;;;;;;;;;;;
3.342693;17700000;2350;;;;;;;;;;;;;;
3.345193;17702500;2366;17703578;434.889;883.833;-12.281;7829.134;-7230.706;-98.588;17703155;184.499;922.24;-220.498;10698.206;-5775.693;-9691.448
3.347693;17705000;2391;;;;;;;;;;;;;;
3.350193;17707500;2398;;;;;;;;;;;;;;
3.352693;17710000;2400;;;;;;;;;;;;;;
3.355193;17712500;2408;;;;;;;;;;;;;;
3.357693;17715000;2408;;;;;;;;;;;;;;
3.360193;17717500;2410;;;;;;;;;;;;;;
3.362693;17720000;2424;;;;;;;;;;;;;;
3.365193;17722500;2441;;;;;;;;;;;;;;
3.367693;17725000;2457;;;;;;;;;;;;;;
3.370193;17727500;2471;;;;;;;;;;;;;;
3.372693;17730000;2463;17730250;434.946;879.901;-17.992;7260.49;-7016.17;-157.534;17729810;180.191;921.872;-224.632;11354.608;-5707.408;-9975.126
3.375193;17732500;2463;;;;;;;;;;;;;;
3.377693;17735000;2460;;;;;;;;;;;;;;
3.380193;17737500;2462;;;;;;;;;;;;;;
3.382693;17740000;2472;;;;;;;;;;;;;;
3.385193;17742500;2478;;;;;;;;;;;;;;
3.387693;17745000;2493;;;;;;;;;;;;;;
3.390193;17747500;2502;;;;;;;;;;;;;;
3.392693;17750000;2494;;;;;;;;;;;;;;
3.395193;17752500;2490;;;;;;;;;;;;;;
3.397693;17755000;2478;;;;;;;;;;;;;;
3.400193;17757500;2473;;;;;;;;;;;;;;
3.402693;17760000;2476;;;;;;;;;;;;;;
3.405193;17762500;2478;;;;;;;;;;;;;;
3.407693;17765000;2488;;;;;;;;;;;;;;
3.410193;17767500;2491;17768515;437.037;880.253;-23.638;6617.903;-6870.549;-363.595;17768087;175.482;918.832;-229.76;11513.128;-5171.788;-10004.869
3.412693;17770000;2479;;;;;;;;;;;;;;
3.415193;17772500;2462;;;;;;;;;;;;;;
3.417693;17775000;2457;;;;;;;;;;;;;;
3.420193;17777500;2444;;;;;;;;;;;;;;
3.422693;17780000;2443;;;;;;;;;;;;;;
3.425193;17782500;2446;;;;;;;;;;;;;;
3.427693;17785000;2456;;;;;;;;;;;;;;
3.430193;17787500;2456;;;;;;;;;;;;;;
3.432693;17790000;2442;;;;;;;;;;;;;;
3.435193;17792500;2424;;;;;;;;;;;;;;
3.437693;17795000;2408;;;;;;;;;;;;;;
3.440193;17797500;2392;;;;;;;;;;;;;;
3.442693;17800000;2383;;;;;;;;;;;;;;
3.445193;17802500;2392;17801942;437.993;879.069;-29.514;6320.695;-6649.084;-484.978;17801501;169.514;916.023;-234.962;11581.909;-4984.948;-9975.376
3.447693;17805000;2392;;;;;;;;;;;;;;
3.450193;17807500;2392;;;;;;;;;;;;;;
3.452693;17810000;2378;;;;;;;;;;;;;;
3.455193;17812500;2361;;;;;;;;;;;;;;
3.457693;17815000;2336;;;;;;;;;;;;;;
3.460193;17817500;2327;;;;;;;;;;;;;;
3.462693;17820000;2316;;;;;;;;;;;;;;
3.465193;17822500;2312;;;;;;;;;;;;;;
3.467693;17825000;2315;;;;;;;;;;;;;;
3.470193;17827500;2312;;;;;;;;;;;;;;
3.472693;17830000;2297;;;;;;;;;;;;;;
3.475193;17832500;2280;17831958;431.667;876.736;-36.054;6719.536;-6078.63;-425.291;17831536;165.534;913.965;-243.661;11522.563;-4530.076;-10112.732
3.477693;17835000;2254;;;;;;;;;;;;;;
3.480193;17837500;2235;;;;;;;;;;;;;;
3.482693;17840000;2222;;;;;;;;;;;;;;
3.485193;17842500;2221;;;;;;;;;;;;;;
3.487693;17845000;2221;;;;;;;;;;;;;;
3.490193;17847500;2215;;;;;;;;;;;;;;
3.492693;17850000;2202;;;;;;;;;;;;;;
3.495193;17852500;2184;;;;;;;;;;;;;;
3.497693;17855000;2156;;;;;;;;;;;;;;
3.500193;17857500;2139;;;;;;;;;;;;;;
3.502693;17860000;2136;;;;;;;;;;;;;;
3.505193;17862500;2135;;;;;;;;;;;;;;
3.507693;17865000;2125;;;;;;;;;;;;;;
3.510193;17867500;2122;17868688;430.25;877.557;-43.742;7854.434;-6006.574;-101.714;17868243;157.861;917.787;-250.071;11512.561;-4372.259;-10012.221
3.512693;17870000;2105;;;;;;;;;;;;;;
3.515193;17872500;2087;;;;;;;;;;;;;;
3.517693;17875000;2062;;;;;;;;;;;;;;
3.520193;17877500;2042;;;;;;;;;;;;;;
3.522693;17880000;2040;;;;;;;;;;;;;;
3.525193;17882500;2029;;;;;;;;;;;;;;
3.527693;17885000;2030;;;;;;;;;;;;;;
3.530193;17887500;2010;;;;;;;;;;;;;;
3.532693;17890000;2011;;;;;;;;;;;;;;
3.535193;17892500;1991;;;;;;;;;;;;;;
3.537693;17895000;1967;;;;;;;;;;;;;;
3.540193;17897500;1952;;;;;;;;;;;;;;
3.542693;17900000;1949;;;;;;;;;;;;;;
3.545193;17902500;1948;;;;;;;;;;;;;;
3.547693;17905000;1950;;;;;;;;;;;;;;
3.550193;17907500;1948;;;;;;;;;;;;;;
3.552693;17910000;1934;;;;;;;;;;;;;;
3.555193;17912500;1915;17911979;429.343;875.824;-51.919;9927.462;-6240.433;-62.503;17911557;154.128;911.09;-256.197;11209.933;-3740.209;-10047.109
3.557693;17915000;1898;;;;;;;;;;;;;;
3.560193;17917500;1884;;;;;;;;;;;;;;
3.562693;17920000;1880;;;;;;;;;;;;;;
3.565193;17922500;1883;;;;;;;;;;;;;;
3.567693;17925000;1881;;;;;;;;;;;;;;
3.570193;17927500;1880;;;;;;;;;;;;;;
3.572693;17930000;1870;;;;;;;;;;;;;;
3.575193;17932500;1850;;;;;;;;;;;;;;
3.577693;17935000;1833;;;;;;;;;;;;;;
3.580193;17937500;1807;;;;;;;;;;;;;;
3.582693;17940000;1816;;;;;;;;;;;;;;
3.585193;17942500;1817;;;;;;;;;;;;;;
3.587693;17945000;1822;;;;;;;;;;;;;;
3.590193;17947500;1821;;;;;;;;;;;;;;
3.592693;17950000;1807;;;;;;;;;;;;;;
3.595193;17952500;1790;;;;;;;;;;;;;;
3.597693;17955000;1774;17955223;429.409;879.643;-58.784;10568.589;-6181.286;-244.003;17954783;145.708;917.629;-261.107;11844.686;-3672.636;-10096.004
3.600193;17957500;1758;;;;;;;;;;;;;;
3.602693;17960000;1756;;;;;;;;;;;;;;
3.605193;17962500;1757;;;;;;;;;;;;;;
3.607693;17965000;1758;;;;;;;;;;;;;;
3.610193;17967500;1758;;;;;;;;;;;;;;
3.612693;17970000;1754;;;;;;;;;;;;;;
3.615193;17972500;1739;;;;;;;;;;;;;;
3.617693;17975000;1720;;;;;;;;;;;;;;
3.620193;17977500;1706;;;;;;;;;;;;;;
3.622693;17980000;1707;;;;;;;;;;;;;;
3.625193;17982500;1706;;;;;;;;;;;;;;
3.627693;17985000;1707;;;;;;;;;;;;;;
3.630193;17987500;1720;17988713;429.045;878.605;-65.733;11548.659;-6157.472;-391.928;17988286;139.753;924.031;-267.804;10547.201;-3260.629;-9760.078
3.632693;17990000;1704;;;;;;;;;;;;;;
3.635193;17992500;1690;;;;;;;;;;;;;;
3.637693;17995000;1675;;;;;;;;;;;;;;
3.640193;17997500;1660;;;;;;;;;;;;;;
3.642693;18000000;1660;;;;;;;;;;;;;;
3.645193;18002500;1655;;;;;;;;;;;;;;
3.647693;18005000;1672;;;;;;;;;;;;;;
3.650193;18007500;1674;;;;;;;;;;;;;;
3.652693;18010000;1661;;;;;;;;;;;;;;
3.655193;18012500;1654;;;;;;;;;;;;;;
3.657693;18015000;1642;;;;;;;;;;;;;;
3.660193;18017500;1629;;;;;;;;;;;;;;
3.662693;18020000;1629;;;;;;;;;;;;;;
3.665193;18022500;1640;18022139;429.668;879.119;-74.756;11580.664;-6173.786;-337.332;18021699;133.881;915.979;-274.043;9458.528;-2983.41;-9595.824
3.667693;18025000;1643;;;;;;;;;;;;;;
3.670193;18027500;1644;;;;;;;;;;;;;;
3.672693;18030000;1640;;;;;;;;;;;;;;
3.675193;18032500;1629;;;;;;;;;;;;;;
3.677693;18035000;1613;;;;;;;;;;;;;;
3.680193;18037500;1607;;;;;;;;;;;;;;
3.682693;18040000;1610;;;;;;;;;;;;;;
3.685193;18042500;1613;;;;;;;;;;;;;;
3.687693;18045000;1614;;;;;;;;;;;;;;
3.690193;18047500;1627;;;;;;;;;;;;;;
3.692693;18050000;1614;;;;;;;;;;;;;;
3.695193;18052500;1599;;;;;;;;;;;;;;
3.697693;18055000;1593;18055461;428.797;875.753;-83.158;11155.631;-5866.409;-481.903;18055026;129.042;915.601;-277.525;9467.289;-3213.115;-9466.471
3.700193;18057500;1583;;;;;;;;;;;;;;
3.702693;18060000;1590;;;;;;;;;;;;;;
3.705193;18062500;1592;;;;;;;;;;;;;;
3.707693;18065000;1596;;;;;;;;;;;;;;
3.710193;18067500;1598;;;;;;;;;;;;;;
3.712693;18070000;1599;;;;;;;;;;;;;;
3.715193;18072500;1584;;;;;;;;;;;;;;
3.717693;18075000;1576;;;;;;;;;;;;;;
3.720193;18077500;1565;;;;;;;;;;;;;;
3.722693;18080000;1567;;;;;;;;;;;;;;
3.725193;18082500;1576;;;;;;;;;;;;;;
3.727693;18085000;1580;;;;;;;;;;;;;;
3.730193;18087500;1592;18087151;429.25;874.97;-90.626;11103.162;-5717.901;-416.245;18086718;124.59;916.729;-280.387;8954.112;-3150.459;-9485.335
3.732693;18090000;1581;;;;;;;;;;;;;;
3.735193;18092500;1567;;;;;;;;;;;;;;
3.737693;18095000;1561;;;;;;;;;;;;;;
3.740193;18097500;1560;;;;;;;;;;;;;;
3.742693;18100000;1550;;;;;;;;;;;;;;
3.745193;18102500;1561;;;;;;;;;;;;;;
3.747693;18105000;1567;;;;;;;;;;;;;;
3.750193;18107500;1578;;;;;;;;;;;;;;
3.752693;18110000;1568;;;;;;;;;;;;;;
3.755193;18112500;1564;;;;;;;;;;;;;;
3.757693;18115000;1550;;;;;;;;;;;;;;
3.760193;18117500;1546;;;;;;;;;;;;;;
3.762693;18120000;1546;18120476;430.534;876.24;-93.866;11362.191;-5612.693;-502.62;18120046;120.66;913.532;-284.192;7812.094;-2863.873;-9101.631
3.765193;18122500;1549;;;;;;;;;;;;;;
3.767693;18125000;1563;;;;;;;;;;;;;;
3.770193;18127500;1567;;;;;;;;;;;;;;
3.772693;18130000;1564;;;;;;;;;;;;;;
3.775193;18132500;1559;;;;;;;;;;;;;;
3.777693;18135000;1547;;;;;;;;;;;;;;
3.780193;18137500;1534;;;;;;;;;;;;;;
3.782693;18140000;1544;;;;;;;;;;;;;;
3.785193;18142500;1549;;;;;;;;;;;;;;
3.787693;18145000;1552;;;;;;;;;;;;;;
3.790193;18147500;1561;;;;;;;;;;;;;;
3.792693;18150000;1561;;;;;;;;;;;;;;
3.795193;18152500;1548;;;;;;;;;;;;;;
3.797693;18155000;1534;;;;;;;;;;;;;;
3.800193;18157500;1530;;;;;;;;;;;;;;
3.802693;18160000;1531;;;;;;;;;;;;;;
3.805193;18162500;1544;18163717;428.759;872.657;-101.763;10487.832;-5454.121;-183.052;18163272;115.292;912.812;-289.216;6537.301;-2726.367;-8766.861
3.807693;18165000;1549;;;;;;;;;;;;;;
3.810193;18167500;1549;;;;;;;;;;;;;;
3.812693;18170000;1551;;;;;;;;;;;;;;
3.815193;18172500;1546;;;;;;;;;;;;;;
3.817693;18175000;1532;;;;;;;;;;;;;;
3.820193;18177500;1528;;;;;;;;;;;;;;
3.822693;18180000;1532;;;;;;;;;;;;;;
3.825193;18182500;1534;;;;;;;;;;;;;;
3.827693;18185000;1546;;;;;;;;;;;;;;
3.830193;18187500;1552;;;;;;;;;;;;;;
3.832693;18190000;1549;;;;;;;;;;;;;;
3.835193;18192500;1547;;;;;;;;;;;;;;
3.837693;18195000;1530;;;;;;;;;;;;;;
3.840193;18197500;1529;18197110;429.489;871.187;-107.442;9504.503;-5134.165;410.163;18196688;111.894;909.5;-285.674;6293.124;-3231.424;-9378.956
3.842693;18200000;1529;;;;;;;;;;;;;;
3.845193;18202500;1532;;;;;;;;;;;;;;
3.847693;18205000;1547;;;;;;;;;;;;;;
3.850193;18207500;1560;;;;;;;;;;;;;;
3.852693;18210000;1549;;;;;;;;;;;;;;
3.855193;18212500;1544;;;;;;;;;;;;;;
3.857693;18215000;1533;;;;;;;;;;;;;;
3.860193;18217500;1526;;;;;;;;;;;;;;
3.862693;18220000;1528;;;;;;;;;;;;;;
3.865193;18222500;1534;;;;;;;;;;;;;;
3.867693;18225000;1548;;;;;;;;;;;;;;
3.870193;18227500;1548;18227080;430.34;874.818;-114.166;10352.715;-4864.769;721.718;18226635;104.256;907.219;-284.664;6171.842;-2870.353;-9081.945
3.872693;18230000;1550;;;;;;;;;;;;;;
3.875193;18232500;1546;;;;;;;;;;;;;;
3.877693;18235000;1532;;;;;;;;;;;;;;
3.880193;18237500;1528;;;;;;;;;;;;;;
3.882693;18240000;1528;;;;;;;;;;;;;;
3.885193;18242500;1536;;;;;;;;;;;;;;
3.887693;18245000;1548;;;;;;;;;;;;;;
3.890193;18247500;1559;;;;;;;;;;;;;;
3.892693;18250000;1559;;;;;;;;;;;;;;
3.895193;18252500;1548;;;;;;;;;;;;;;
3.897693;18255000;1533;;;;;;;;;;;;;;
3.900193;18257500;1519;;;;;;;;;;;;;;
3.902693;18260000;1530;;;;;;;;;;;;;;
3.905193;18262500;1533;18263678;431.058;877.235;-122.701;11184.767;-4837.218;250.319;18263255;98.013;902.685;-286.956;5704.0;-2022.022;-7712.16
3.907693;18265000;1544;;;;;;;;;;;;;;
3.910193;18267500;1548;;;;;;;;;;;;;;
3.912693;18270000;1548;;;;;;;;;;;;;;
3.915193;18272500;1544;;;;;;;;;;;;;;
3.917693;18275000;1520;;;;;;;;;;;;;;
3.920193;18277500;1518;;;;;;;;;;;;;;
3.922693;18280000;1518;;;;;;;;;;;;;;
3.925193;18282500;1527;;;;;;;;;;;;;;
3.927693;18285000;1535;;;;;;;;;;;;;;
3.930193;18287500;1546;;;;;;;;;;;;;;
3.932693;18290000;1545;;;;;;;;;;;;;;
3.935193;18292500;1530;;;;;;;;;;;;;;
3.937693;18295000;1518;;;;;;;;;;;;;;
3.940193;18297500;1512;18296941;430.934;876.513;-130.395;10855.653;-4399.357;390.928;18296496;94.826;896.853;-290.395;6218.987;-1254.171;-6258.177
3.942693;18300000;1513;;;;;;;;;;;;;;
3.945193;18302500;1517;;;;;;;;;;;;;;
3.947693;18305000;1529;;;;;;;;;;;;;;
3.950193;18307500;1533;;;;;;;;;;;;;;
3.952693;18310000;1530;;;;;;;;;;;;;;
3.955193;18312500;1519;;;;;;;;;;;;;;
3.957693;18315000;1513;;;;;;;;;;;;;;
3.960193;18317500;1502;;;;;;;;;;;;;;
3.962693;18320000;1511;;;;;;;;;;;;;;
3.965193;18322500;1514;;;;;;;;;;;;;;
3.967693;18325000;1518;;;;;;;;;;;;;;
3.970193;18327500;1529;18328523;430.152;876.857;-137.563;10335.62;-3846.89;809.757;18328101;90.75;897.108;-290.436;6971.163;-794.65;-4757.893
3.972693;18330000;1528;;;;;;;;;;;;;;
3.975193;18332500;1500;;;;;;;;;;;;;;
3.977693;18335000;1512;;;;;;;;;;;;;;
3.980193;18337500;1502;;;;;;;;;;;;;;
3.982693;18340000;1502;;;;;;;;;;;;;;
3.985193;18342500;1514;;;;;;;;;;;;;;
3.987693;18345000;1520;;;;;;;;;;;;;;
3.990193;18347500;1517;;;;;;;;;;;;;;
3.992693;18350000;1528;;;;;;;;;;;;;;
3.995193;18352500;1528;;;;;;;;;;;;;;
3.997693;18355000;1516;;;;;;;;;;;;;;
4.000193;18357500;1515;;;;;;;;;;;;;;
4.002693;18360000;1517;;;;;;;;;;;;;;
4.005193;18362500;1529;18361694;430.22;875.416;-144.032;10093.589;-3427.483;755.707;18361254;88.701;899.826;-296.581;5951.917;260.957;-2510.561
4.007693;18365000;1545;;;;;;;;;;;;;;
4.010193;18367500;1561;;;;;;;;;;;;;;
4.012693;18370000;1559;;;;;;;;;;;;;;
4.015193;18372500;1549;;;;;;;;;;;;;;
4.017693;18375000;1545;;;;;;;;;;;;;;
4.020193;18377500;1547;;;;;;;;;;;;;;
4.022693;18380000;1547;;;;;;;;;;;;;;
4.025193;18382500;1560;;;;;;;;;;;;;;
4.027693;18385000;1578;;;;;;;;;;;;;;
4.030193;18387500;1582;;;;;;;;;;;;;;
4.032693;18390000;1584;;;;;;;;;;;;;;
4.035193;18392500;1581;;;;;;;;;;;;;;
4.037693;18395000;1578;18394749;430.712;873.637;-151.794;9514.534;-3243.421;763.859;18394321;88.548;896.791;-300.022;4973.572;1204.722;-385.658
4.040193;18397500;1575;;;;;;;;;;;;;;
4.042693;18400000;1578;;;;;;;;;;;;;;
4.045193;18402500;1592;;;;;;;;;;;;;;
4.047693;18405000;1598;;;;;;;;;;;;;;
4.050193;18407500;1609;;;;;;;;;;;;;;
4.052693;18410000;1609;;;;;;;;;;;;;;
4.055193;18412500;1608;;;;;;;;;;;;;;
4.057693;18415000;1594;;;;;;;;;;;;;;
4.060193;18417500;1591;;;;;;;;;;;;;;
4.062693;18420000;1596;;;;;;;;;;;;;;
4.065193;18422500;1600;;;;;;;;;;;;;;
4.067693;18425000;1611;;;;;;;;;;;;;;
4.070193;18427500;1623;18427741;429.849;873.704;-159.546;8653.37;-2627.562;905.041;18427302;89.049;897.317;-303.43;4381.456;2040.486;1724.875
4.072693;18430000;1625;;;;;;;;;;;;;;
4.075193;18432500;1612;;;;;;;;;;;;;;
4.077693;18435000;1608;;;;;;;;;;;;;;
4.080193;18437500;1599;;;;;;;;;;;;;;
4.082693;18440000;1608;;;;;;;;;;;;;;
4.085193;18442500;1611;;;;;;;;;;;;;;
4.087693;18445000;1626;;;;;;;;;;;;;;
4.090193;18447500;1640;;;;;;;;;;;;;;
4.092693;18450000;1642;;;;;;;;;;;;;;
4.095193;18452500;1630;;;;;;;;;;;;;;
4.097693;18455000;1626;;;;;;;;;;;;;;
4.100193;18457500;1625;;;;;;;;;;;;;;
4.102693;18460000;1625;;;;;;;;;;;;;;
4.105193;18462500;1641;;;;;;;;;;;;;;
4.107693;18465000;1656;;;;;;;;;;;;;;
4.110193;18467500;1662;;;;;;;;;;;;;;
4.112693;18470000;1673;18470611;428.31;870.145;-163.72;7827.389;-2227.559;870.726;18470180;92.253;902.081;-306.077;4054.32;2634.087;3190.006
4.115193;18472500;1670;;;;;;;;;;;;;;
4.117693;18475000;1660;;;;;;;;;;;;;;
4.120193;18477500;1659;;;;;;;;;;;;;;
4.122693;18480000;1671;;;;;;;;;;;;;;
4.125193;18482500;1686;;;;;;;;;;;;;;
4.127693;18485000;1696;;;;;;;;;;;;;;
4.130193;18487500;1710;;;;;;;;;;;;;;
4.132693;18490000;1721;;;;;;;;;;;;;;
4.135193;18492500;1720;;;;;;;;;;;;;;
4.137693;18495000;1719;;;;;;;;;;;;;;
4.140193;18497500;1710;;;;;;;;;;;;;;
4.142693;18500000;1721;;;;;;;;;;;;;;
4.145193;18502500;1736;18503599;429.647;867.148;-167.215;6938.582;-1916.681;912.065;18503162;96.558;908.656;-309.768;3144.167;3114.007;4061.256
4.147693;18505000;1751;;;;;;;;;;;;;;
4.150193;18507500;1759;;;;;;;;;;;;;;
4.152693;18510000;1768;;;;;;;;;;;;;;
4.155193;18512500;1767;;;;;;;;;;;;;;
4.157693;18515000;1757;;;;;;;;;;;;;;
4.160193;18517500;1754;;;;;;;;;;;;;;
4.162693;18520000;1757;;;;;;;;;;;;;;
4.165193;18522500;1773;;;;;;;;;;;;;;
4.167693;18525000;1786;;;;;;;;;;;;;;
4.170193;18527500;1799;;;;;;;;;;;;;;
4.172693;18530000;1801;18529986;430.716;864.971;-169.926;5816.84;-1595.097;846.774;18529556;98.702;909.754;-313.513;2288.271;3536.244;4491.693
4.175193;18532500;1799;;;;;;;;;;;;;;
4.177693;18535000;1789;;;;;;;;;;;;;;
4.180193;18537500;1787;;;;;;;;;;;;;;
4.182693;18540000;1788;;;;;;;;;;;;;;
4.185193;18542500;1804;;;;;;;;;;;;;;
4.187693;18545000;1818;;;;;;;;;;;;;;
4.190193;18547500;1832;;;;;;;;;;;;;;
4.192693;18550000;1836;;;;;;;;;;;;;;
4.195193;18552500;1824;;;;;;;;;;;;;;
4.197693;18555000;1821;;;;;;;;;;;;;;
4.200193;18557500;1819;;;;;;;;;;;;;;
4.202693;18560000;1821;;;;;;;;;;;;;;
4.205193;18562500;1835;;;;;;;;;;;;;;
4.207693;18565000;1850;;;;;;;;;;;;;;
4.210193;18567500;1867;18567919;429.451;862.727;-171.873;4802.373;-1397.655;730.935;18567486;101.795;909.62;-315.686;2631.92;3274.557;4211.983
4.212693;18570000;1867;;;;;;;;;;;;;;
4.215193;18572500;1863;;;;;;;;;;;;;;
4.217693;18575000;1854;;;;;;;;;;;;;;
4.220193;18577500;1850;;;;;;;;;;;;;;
4.222693;18580000;1854;;;;;;;;;;;;;;
4.225193;18582500;1869;;;;;;;;;;;;;;
4.227693;18585000;1884;;;;;;;;;;;;;;
4.230193;18587500;1896;;;;;;;;;;;;;;
4.232693;18590000;1898;;;;;;;;;;;;;;
4.235193;18592500;1896;;;;;;;;;;;;;;
4.237693;18595000;1886;;;;;;;;;;;;;;
4.240193;18597500;1884;;;;;;;;;;;;;;
4.242693;18600000;1896;18600989;429.066;862.315;-175.144;3829.879;-1303.272;655.889;18600553;104.684;916.166;-317.519;3177.136;2701.767;3538.947
4.245193;18602500;1899;;;;;;;;;;;;;;
4.247693;18605000;1915;;;;;;;;;;;;;;
4.250193;18607500;1929;;;;;;;;;;;;;;
4.252693;18610000;1929;;;;;;;;;;;;;;
4.255193;18612500;1927;;;;;;;;;;;;;;
4.257693;18615000;1916;;;;;;;;;;;;;;
4.260193;18617500;1914;;;;;;;;;;;;;;
4.262693;18620000;1916;;;;;;;;;;;;;;
4.265193;18622500;1930;;;;;;;;;;;;;;
4.267693;18625000;1944;;;;;;;;;;;;;;
4.270193;18627500;1950;;;;;;;;;;;;;;
4.272693;18630000;1960;18630760;430.75;863.211;-177.037;3224.51;-1358.858;499.282;18630328;107.3;920.597;-319.559;2880.029;2083.241;3207.562
4.275193;18632500;1950;;;;;;;;;;;;;;
4.277693;18635000;1945;;;;;;;;;;;;;;
4.280193;18637500;1936;;;;;;;;;;;;;;
4.282693;18640000;1944;;;;;;;;;;;;;;
4.285193;18642500;1950;;;;;;;;;;;;;;
4.287693;18645000;1965;;;;;;;;;;;;;;
4.290193;18647500;1967;;;;;;;;;;;;;;
4.292693;18650000;1979;;;;;;;;;;;;;;
4.295193;18652500;1976;;;;;;;;;;;;;;
4.297693;18655000;1963;;;;;;;;;;;;;;
4.300193;18657500;1961;;;;;;;;;;;;;;
4.302693;18660000;1962;;;;;;;;;;;;;;
4.305193;18662500;1967;;;;;;;;;;;;;;
4.307693;18665000;1975;;;;;;;;;;;;;;
4.310193;18667500;1992;18667117;430.831;862.763;-179.037;2523.847;-1542.915;468.193;18666687;109.579;922.806;-321.387;2291.965;1307.079;2490.246
4.312693;18670000;1992;;;;;;;;;;;;;;
4.315193;18672500;1982;;;;;;;;;;;;;;
4.317693;18675000;1978;;;;;;;;;;;;;;
4.320193;18677500;1967;;;;;;;;;;;;;;
4.322693;18680000;1966;;;;;;;;;;;;;;
4.325193;18682500;1978;;;;;;;;;;;;;;
4.327693;18685000;2008;;;;;;;;;;;;;;
4.330193;18687500;1997;;;;;;;;;;;;;;
4.332693;18690000;1996;;;;;;;;;;;;;;
4.335193;18692500;1992;;;;;;;;;;;;;;
4.337693;18695000;1980;;;;;;;;;;;;;;
4.340193;18697500;1976;;;;;;;;;;;;;;
4.342693;18700000;1977;;;;;;;;;;;;;;
4.345193;18702500;1981;;;;;;;;;;;;;;
4.347693;18705000;1993;;;;;;;;;;;;;;
4.350193;18707500;1996;;;;;;;;;;;;;;
4.352693;18710000;1998;18710098;430.932;862.69;-180.028;1789.967;-1721.707;551.97;18709654;111.524;926.173;-322.72;2305.554;226.725;1397.109
4.355193;18712500;1994;;;;;;;;;;;;;;
4.357693;18715000;1984;;;;;;;;;;;;;;
4.360193;18717500;1976;;;;;;;;;;;;;;
4.362693;18720000;1966;;;;;;;;;;;;;;
4.365193;18722500;1981;;;;;;;;;;;;;;
4.367693;18725000;1984;;;;;;;;;;;;;;
4.370193;18727500;1994;;;;;;;;;;;;;;
4.372693;18730000;1993;;;;;;;;;;;;;;
4.375193;18732500;1981;;;;;;;;;;;;;;
4.377693;18735000;1976;;;;;;;;;;;;;;
4.380193;18737500;1964;;;;;;;;;;;;;;
4.382693;18740000;1965;;;;;;;;;;;;;;
4.385193;18742500;1968;;;;;;;;;;;;;;
4.387693;18745000;1978;;;;;;;;;;;;;;
4.390193;18747500;1981;;;;;;;;;;;;;;
4.392693;18750000;1983;;;;;;;;;;;;;;
4.395193;18752500;1979;18752963;432.09;863.165;-181.171;1614.719;-2229.309;804.372;18752533;110.413;930.507;-325.86;2386.714;-968.924;68.566
4.397693;18755000;1964;;;;;;;;;;;;;;
4.400193;18757500;1961;;;;;;;;;;;;;;
4.402693;18760000;1960;;;;;;;;;;;;;;
4.405193;18762500;1962;;;;;;;;;;;;;;
4.407693;18765000;1966;;;;;;;;;;;;;;
4.410193;18767500;1978;;;;;;;;;;;;;;
4.412693;18770000;1979;;;;;;;;;;;;;;
4.415193;18772500;1977;;;;;;;;;;;;;;
4.417693;18775000;1961;;;;;;;;;;;;;;
4.420193;18777500;1949;;;;;;;;;;;;;;
4.422693;18780000;1948;;;;;;;;;;;;;;
4.425193;18782500;1951;;;;;;;;;;;;;;
4.427693;18785000;1966;18785865;433.22;863.829;-181.958;1973.67;-2402.656;1125.966;18785428;110.138;930.408;-324.531;2058.691;-1472.603;-957.3
4.430193;18787500;1976;;;;;;;;;;;;;;
4.432693;18790000;1976;;;;;;;;;;;;;;
4.435193;18792500;1964;;;;;;;;;;;;;;
4.437693;18795000;1959;;;;;;;;;;;;;;
4.440193;18797500;1949;;;;;;;;;;;;;;
4.442693;18800000;1945;;;;;;;;;;;;;;
4.445193;18802500;1949;;;;;;;;;;;;;;
4.447693;18805000;1962;;;;;;;;;;;;;;
4.450193;18807500;1966;;;;;;;;;;;;;;
4.452693;18810000;1966;;;;;;;;;;;;;;
4.455193;18812500;1963;;;;;;;;;;;;;;
4.457693;18815000;1947;;;;;;;;;;;;;;
4.460193;18817500;1943;;;;;;;;18818669;110.438;921.775;-322.95;1998.631;-1473.785;-2171.622
4.462693;18820000;1933;18819099;432.647;858.75;-185.908;3285.487;-2226.961;806.292;;;;;;;
4.465193;18822500;1934;;;;;;;;;;;;;;
4.467693;18825000;1958;;;;;;;;;;;;;;
4.470193;18827500;1961;;;;;;;;;;;;;;
4.472693;18830000;1960;;;;;;;;;;;;;;
4.475193;18832500;1950;;;;;;;;;;;;;;
4.477693;18835000;1943;;;;;;;;;;;;;;
4.480193;18837500;1930;;;;;;;;;;;;;;
4.482693;18840000;1928;;;;;;;;;;;;;;
4.485193;18842500;1933;;;;;;;;;;;;;;
4.487693;18845000;1946;;;;;;;;;;;;;;
4.490193;18847500;1934;;;;;;;;;;;;;;
4.492693;18850000;1948;;;;;;;;;;;;;;
4.495193;18852500;1936;18852353;433.749;855.042;-188.105;5195.837;-2351.863;783.915;18851908;110.126;915.471;-323.035;5202.262;-1964.033;-3897.041
4.497693;18855000;1928;;;;;;;;;;;;;;
4.500193;18857500;1916;;;;;;;;;;;;;;
4.502693;18860000;1914;;;;;;;;;;;;;;
4.505193;18862500;1917;;;;;;;;;;;;;;
4.507693;18865000;1929;;;;;;;;;;;;;;
4.510193;18867500;1934;;;;;;;;;;;;;;
4.512693;18870000;1931;;;;;;;;;;;;;;
4.515193;18872500;1919;;;;;;;;;;;;;;
4.517693;18875000;1913;;;;;;;;;;;;;;
4.520193;18877500;1897;;;;;;;;;;;;;;
4.522693;18880000;1897;;;;;;;;;;;;;;
4.525193;18882500;1901;;;;;;;;18883514;108.121;918.119;-327.263;8929.523;-2221.082;-5538.377
4.527693;18885000;1912;18883936;433.741;854.441;-186.794;7256.108;-2597.395;228.032;;;;;;;
4.530193;18887500;1916;;;;;;;;;;;;;;
4.532693;18890000;1915;;;;;;;;;;;;;;
4.535193;18892500;1900;;;;;;;;;;;;;;
4.537693;18895000;1886;;;;;;;;;;;;;;
4.540193;18897500;1883;;;;;;;;;;;;;;
4.542693;18900000;1882;;;;;;;;;;;;;;
4.545193;18902500;1884;;;;;;;;;;;;;;
4.547693;18905000;1897;;;;;;;;;;;;;;
4.550193;18907500;1901;;;;;;;;;;;;;;
4.552693;18910000;1903;;;;;;;;;;;;;;
4.555193;18912500;1897;;;;;;;;;;;;;;
4.557693;18915000;1884;;;;;;;;;;;;;;
4.560193;18917500;1879;18917199;434.343;855.376;-190.631;8601.74;-2552.4;-309.682;18916754;104.624;922.233;-337.472;11344.297;-2847.215;-7151.896
4.562693;18920000;1879;;;;;;;;;;;;;;
4.565193;18922500;1884;;;;;;;;;;;;;;
4.567693;18925000;1898;;;;;;;;;;;;;;
4.570193;18927500;1899;;;;;;;;;;;;;;
4.572693;18930000;1898;;;;;;;;;;;;;;
4.575193;18932500;1896;;;;;;;;;;;;;;
4.577693;18935000;1884;;;;;;;;;;;;;;
4.580193;18937500;1869;;;;;;;;;;;;;;
4.582693;18940000;1870;;;;;;;;;;;;;;
4.585193;18942500;1881;;;;;;;;;;;;;;
4.587693;18945000;1896;;;;;;;;;;;;;;
4.590193;18947500;1899;;;;;;;;;;;;;;
4.592693;18950000;1898;18950597;436.935;861.334;-196.483;8123.966;-2320.217;-199.26;18950167;98.392;918.937;-344.742;13290.082;-3907.542;-9117.863
4.595193;18952500;1896;;;;;;;;;;;;;;
4.597693;18955000;1882;;;;;;;;;;;;;;
4.600193;18957500;1867;;;;;;;;;;;;;;
4.602693;18960000;1870;;;;;;;;;;;;;;
4.605193;18962500;1880;;;;;;;;;;;;;;
4.607693;18965000;1884;;;;;;;;;;;;;;
4.610193;18967500;1897;;;;;;;;;;;;;;
4.612693;18970000;1898;;;;;;;;;;;;;;
4.615193;18972500;1886;;;;;;;;;;;;;;
4.617693;18975000;1879;;;;;;;;;;;;;;
4.620193;18977500;1868;;;;;;;;;;;;;;
4.622693;18980000;1869;;;;;;;;;;;;;;
4.625193;18982500;1880;;;;;;;;18983496;86.885;914.458;-352.899;14792.516;-4834.352;-10494.22
4.627693;18985000;1884;18983933;434.529;864.573;-203.245;7548.893;-1932.956;-522.235;;;;;;;
4.630193;18987500;1896;;;;;;;;;;;;;;
4.632693;18990000;1900;;;;;;;;;;;;;;
4.635193;18992500;1895;;;;;;;;;;;;;;
4.637693;18995000;1884;;;;;;;;;;;;;;
4.640193;18997500;1871;;;;;;;;;;;;;;
4.642693;19000000;1881;;;;;;;;;;;;;;
4.645193;19002500;1884;;;;;;;;;;;;;;
4.647693;19005000;1898;;;;;;;;;;;;;;
4.650193;19007500;1912;;;;;;;;;;;;;;
4.652693;19010000;1912;;;;;;;;;;;;;;
4.655193;19012500;1902;;;;;;;;;;;;;;
4.657693;19015000;1897;;;;;;;;;;;;;;
4.660193;19017500;1885;19017340;432.487;858.341;-206.503;6270.198;-2205.996;-1022.873;19016910;83.663;909.813;-363.467;17076.016;-5899.009;-11961.009
4.662693;19020000;1886;;;;;;;;;;;;;;
4.665193;19022500;1900;;;;;;;;;;;;;;
4.667693;19025000;1914;;;;;;;;;;;;;;
4.670193;19027500;1918;;;;;;;;;;;;;;
4.672693;19030000;1916;;;;;;;;;;;;;;
4.675193;19032500;1914;;;;;;;;;;;;;;
4.677693;19035000;1910;;;;;;;;;;;;;;
4.680193;19037500;1897;;;;;;;;;;;;;;
4.682693;19040000;1898;;;;;;;;;;;;;;
4.685193;19042500;1903;;;;;;;;;;;;;;
4.687693;19045000;1913;;;;;;;;;;;;;;
4.690193;19047500;1917;;;;;;;;;;;;;;
4.692693;19050000;1917;;;;;;;;;;;;;;
4.695193;19052500;1914;;;;;;;;;;;;;;
4.697693;19055000;1902;;;;;;;;;;;;;;
4.700193;19057500;1896;;;;;;;;;;;;;;
4.702693;19060000;1894;19060749;432.127;856.306;-213.727;6904.75;-2253.196;-1046.104;19060310;74.447;911.097;-373.463;19671.902;-7053.058;-13431.896
4.705193;19062500;1900;;;;;;;;;;;;;;
4.707693;19065000;1904;;;;;;;;;;;;;;
4.710193;19067500;1912;;;;;;;;;;;;;;
4.712693;19070000;1917;;;;;;;;;;;;;;
4.715193;19072500;1911;;;;;;;;;;;;;;
4.717693;19075000;1897;;;;;;;;;;;;;;
4.720193;19077500;1884;;;;;;;;;;;;;;
4.722693;19080000;1885;;;;;;;;;;;;;;
4.725193;19082500;1887;;;;;;;;;;;;;;
4.727693;19085000;1900;;;;;;;;;;;;;;
4.730193;19087500;1915;;;;;;;;;;;;;;
4.732693;19090000;1914;;;;;;;;;;;;;;
4.735193;19092500;1911;;;;;;;;;;;;;;
4.737693;19095000;1899;19094239;432.957;859.82;-216.516;6874.513;-2410.473;-1420.799;19093812;63.93;913.531;-382.142;19868.244;-7539.968;-14255.238
4.740193;19097500;1887;;;;;;;;;;;;;;
4.742693;19100000;1895;;;;;;;;;;;;;;
4.745193;19102500;1897;;;;;;;;;;;;;;
4.747693;19105000;1911;;;;;;;;;;;;;;
4.750193;19107500;1916;;;;;;;;;;;;;;
4.752693;19110000;1918;;;;;;;;;;;;;;
4.755193;19112500;1912;;;;;;;;;;;;;;
4.757693;19115000;1901;;;;;;;;;;;;;;
4.760193;19117500;1897;;;;;;;;;;;;;;
4.762693;19120000;1900;;;;;;;;;;;;;;
4.765193;19122500;1903;;;;;;;;;;;;;;
4.767693;19125000;1917;19126117;432.0;860.304;-217.823;6256.475;-2332.825;-1449.072;19125677;54.889;907.534;-392.089;18837.645;-7980.219;-14942.039
4.770193;19127500;1930;;;;;;;;;;;;;;
4.772693;19130000;1932;;;;;;;;;;;;;;
4.775193;19132500;1919;;;;;;;;;;;;;;
4.777693;19135000;1914;;;;;;;;;;;;;;
4.780193;19137500;1903;;;;;;;;;;;;;;
4.782693;19140000;1912;;;;;;;;;;;;;;
4.785193;19142500;1913;;;;;;;;;;;;;;
4.787693;19145000;1928;;;;;;;;;;;;;;
4.790193;19147500;1932;;;;;;;;;;;;;;
4.792693;19150000;1934;;;;;;;;;;;;;;
4.795193;19152500;1927;;;;;;;;;;;;;;
4.797693;19155000;1914;;;;;;;;;;;;;;
4.800193;19157500;1902;;;;;;;;;;;;;;
4.802693;19160000;1900;19159600;429.469;854.035;-225.073;5577.901;-2059.996;-1611.556;19159178;44.404;899.526;-401.21;18615.449;-9013.583;-15774.749
4.805193;19162500;1902;;;;;;;;;;;;;;
4.807693;19165000;1915;;;;;;;;;;;;;;
4.810193;19167500;1927;;;;;;;;;;;;;;
4.812693;19170000;1918;;;;;;;;;;;;;;
4.815193;19172500;1914;;;;;;;;;;;;;;
4.817693;19175000;1902;;;;;;;;;;;;;;
4.820193;19177500;1896;;;;;;;;;;;;;;
4.822693;19180000;1895;;;;;;;;;;;;;;
4.825193;19182500;1898;;;;;;;;;;;;;;
4.827693;19185000;1911;;;;;;;;;;;;;;
4.830193;19187500;1914;;;;;;;;;;;;;;
4.832693;19190000;1918;;;;;;;;;;;;;;
4.835193;19192500;1913;19193124;429.363;848.098;-227.508;4860.193;-1944.308;-1492.478;19192679;38.658;899.861;-412.558;19053.613;-10226.716;-17201.512
4.837693;19195000;1901;;;;;;;;;;;;;;
4.840193;19197500;1898;;;;;;;;;;;;;;
4.842693;19200000;1897;;;;;;;;;;;;;;
4.845193;19202500;1901;;;;;;;;;;;;;;
4.847693;19205000;1911;;;;;;;;;;;;;;
4.850193;19207500;1920;;;;;;;;;;;;;;
4.852693;19210000;1929;;;;;;;;;;;;;;
4.855193;19212500;1915;;;;;;;;;;;;;;
4.857693;19215000;1912;;;;;;;;;;;;;;
4.860193;19217500;1900;;;;;;;;;;;;;;
4.862693;19220000;1899;;;;;;;;;;;;;;
4.865193;19222500;1902;;;;;;;;;;;;;;
4.867693;19225000;1914;;;;;;;;;;;;;;
4.870193;19227500;1918;19226689;428.843;851.126;-230.907;4970.684;-2302.531;-1453.729;19226267;26.837;896.549;-422.363;17848.932;-10994.63;-18425.686
4.872693;19230000;1912;;;;;;;;;;;;;;
4.875193;19232500;1916;;;;;;;;;;;;;;
4.877693;19235000;1901;;;;;;;;;;;;;;
4.880193;19237500;1895;;;;;;;;;;;;;;
4.882693;19240000;1896;;;;;;;;;;;;;;
4.885193;19242500;1898;;;;;;;;;;;;;;
4.887693;19245000;1901;;;;;;;;;;;;;;
4.890193;19247500;1913;;;;;;;;;;;;;;
4.892693;19250000;1914;;;;;;;;;;;;;;
4.895193;19252500;1903;;;;;;;;;;;;;;
4.897693;19255000;1897;;;;;;;;;;;;;;
4.900193;19257500;1885;;;;;;;;;;;;;;
4.902693;19260000;1885;;;;;;;;;;;;;;
4.905193;19262500;1886;;;;;;;;;;;;;;
4.907693;19265000;1897;;;;;;;;;;;;;;
4.910193;19267500;1912;;;;;;;;;;;;;;
4.912693;19270000;1912;19270193;427.921;852.203;-234.044;4088.212;-2721.592;-1538.542;19269753;14.503;888.846;-430.013;17007.672;-12358.523;-19622.338
4.915193;19272500;1902;;;;;;;;;;;;;;
4.917693;19275000;1896;;;;;;;;;;;;;;
4.920193;19277500;1884;;;;;;;;;;;;;;
4.922693;19280000;1881;;;;;;;;;;;;;;
4.925193;19282500;1885;;;;;;;;;;;;;;
4.927693;19285000;1899;;;;;;;;;;;;;;
4.930193;19287500;1902;;;;;;;;;;;;;;
4.932693;19290000;1911;;;;;;;;;;;;;;
4.935193;19292500;1898;;;;;;;;;;;;;;
4.937693;19295000;1886;;;;;;;;;;;;;;
4.940193;19297500;1879;;;;;;;;;;;;;;
4.942693;19300000;1869;;;;;;;;;;;;;;
4.945193;19302500;1880;;;;;;;;19303342;1.169;886.976;-437.463;16432.914;-13715.034;-21126.658
4.947693;19305000;1884;19303770;428.247;852.079;-236.335;3290.989;-2897.887;-1516.74;;;;;;;
4.950193;19307500;1896;;;;;;;;;;;;;;
4.952693;19310000;1896;;;;;;;;;;;;;;
4.955193;19312500;1884;;;;;;;;;;;;;;
4.957693;19315000;1880;;;;;;;;;;;;;;
4.960193;19317500;1868;;;;;;;;;;;;;;
4.962693;19320000;1865;;;;;;;;;;;;;;
4.965193;19322500;1868;;;;;;;;;;;;;;
4.967693;19325000;1880;;;;;;;;;;;;;;
4.970193;19327500;1887;;;;;;;;;;;;;;
4.972693;19330000;1887;19330697;445.496;854.938;-206.853;3361.377;-2268.243;-1599.278;19330257;-14.164;878.94;-441.618;15440.206;-14551.345;-22583.762
4.975193;19332500;1883;;;;;;;;;;;;;;
4.977693;19335000;1879;;;;;;;;;;;;;;
4.980193;19337500;1865;;;;;;;;;;;;;;
4.982693;19340000;1866;;;;;;;;;;;;;;
4.985193;19342500;1868;;;;;;;;;;;;;;
4.987693;19345000;1882;;;;;;;;;;;;;;
4.990193;19347500;1884;;;;;;;;;;;;;;
4.992693;19350000;1886;;;;;;;;;;;;;;
4.995193;19352500;1884;;;;;;;;;;;;;;
4.997693;19355000;1870;;;;;;;;;;;;;;
5.000193;19357500;1866;;;;;;;;;;;;;;
5.002693;19360000;1866;;;;;;;;;;;;;;
5.005193;19362500;1868;;;;;;;;;;;;;;
5.007693;19365000;1880;;;;;;;;;;;;;;
5.010193;19367500;1885;;;;;;;;;;;;;;
5.012693;19370000;1887;19369304;445.261;858.369;-210.211;3123.308;-2186.331;-1878.939;19368882;-28.828;876.083;-444.437;13753.383;-15312.152;-23710.324
5.015193;19372500;1882;;;;;;;;;;;;;;
5.017693;19375000;1869;;;;;;;;;;;;;;
5.020193;19377500;1855;;;;;;;;;;;;;;
5.022693;19380000;1856;;;;;;;;;;;;;;
5.025193;19382500;1865;;;;;;;;;;;;;;
5.027693;19385000;1879;;;;;;;;;;;;;;
5.030193;19387500;1883;;;;;;;;;;;;;;
5.032693;19390000;1883;;;;;;;;;;;;;;
5.035193;19392500;1871;;;;;;;;;;;;;;
5.037693;19395000;1866;;;;;;;;;;;;;;
5.040193;19397500;1852;;;;;;;;;;;;;;
5.042693;19400000;1853;;;;;;;;;;;;;;
5.045193;19402500;1854;19403001;444.622;858.748;-215.115;1979.267;-1946.201;-1940.305;19402556;-44.82;867.573;-449.72;11642.526;-15824.92;-24875.934
5.047693;19405000;1867;;;;;;;;;;;;;;
5.050193;19407500;1870;;;;;;;;;;;;;;
5.052693;19410000;1880;;;;;;;;;;;;;;
5.055193;19412500;1867;;;;;;;;;;;;;;
5.057693;19415000;1853;;;;;;;;;;;;;;
5.060193;19417500;1849;;;;;;;;;;;;;;
5.062693;19420000;1847;;;;;;;;;;;;;;
5.065193;19422500;1848;;;;;;;;;;;;;;
5.067693;19425000;1853;;;;;;;;;;;;;;
5.070193;19427500;1867;;;;;;;;;;;;;;
5.072693;19430000;1869;;;;;;;;;;;;;;
5.075193;19432500;1863;19433361;441.661;855.741;-220.0;601.054;-1753.954;-1684.915;19432938;-61.757;857.269;-451.134;10218.213;-16673.861;-26031.824
5.077693;19435000;1850;;;;;;;;;;;;;;
5.080193;19437500;1839;;;;;;;;;;;;;;
5.082693;19440000;1837;;;;;;;;;;;;;;
5.085193;19442500;1849;;;;;;;;;;;;;;
5.087693;19445000;1861;;;;;;;;;;;;;;
5.090193;19447500;1868;;;;;;;;;;;;;;
5.092693;19450000;1870;;;;;;;;;;;;;;
5.095193;19452500;1864;;;;;;;;;;;;;;
5.097693;19455000;1853;;;;;;;;;;;;;;
5.100193;19457500;1849;;;;;;;;;;;;;;
5.102693;19460000;1840;;;;;;;;;;;;;;
5.105193;19462500;1850;;;;;;;;;;;;;;
5.107693;19465000;1863;;;;;;;;;;;;;;
5.110193;19467500;1869;;;;;;;;;;;;;;
5.112693;19470000;1870;19470258;438.287;855.752;-221.279;574.501;-1917.381;-1943.231;19469819;-79.928;854.421;-449.72;9397.989;-17312.793;-26927.357
5.115193;19472500;1866;;;;;;;;;;;;;;
5.117693;19475000;1865;;;;;;;;;;;;;;
5.120193;19477500;1852;;;;;;;;;;;;;;
5.122693;19480000;1852;;;;;;;;;;;;;;
5.125193;19482500;1865;;;;;;;;;;;;;;
5.127693;19485000;1879;;;;;;;;;;;;;;
5.130193;19487500;1885;;;;;;;;;;;;;;
5.132693;19490000;1897;;;;;;;;;;;;;;
5.135193;19492500;1895;;;;;;;;;;;;;;
5.137693;19495000;1880;;;;;;;;;;;;;;
5.140193;19497500;1871;;;;;;;;;;;;;;
5.142693;19500000;1880;;;;;;;;;;;;;;
5.145193;19502500;1883;;;;;;;;;;;;;;
5.147693;19505000;1884;;;;;;;;;;;;;;
5.150193;19507500;1903;;;;;;;;;;;;;;
5.152693;19510000;1917;;;;;;;;;;;;;;
5.155193;19512500;1913;19513647;435.947;858.494;-219.865;1474.589;-1573.012;-1952.82;19513220;-98.953;849.221;-449.072;7588.465;-17395.652;-27644.238
5.157693;19515000;1903;;;;;;;;;;;;;;
5.160193;19517500;1903;;;;;;;;;;;;;;
5.162693;19520000;1902;;;;;;;;;;;;;;
5.165193;19522500;1917;;;;;;;;;;;;;;
5.167693;19525000;1942;;;;;;;;;;;;;;
5.170193;19527500;1959;;;;;;;;;;;;;;
5.172693;19530000;1963;;;;;;;;;;;;;;
5.175193;19532500;1961;;;;;;;;;;;;;;
5.177693;19535000;1960;;;;;;;;;;;;;;
5.180193;19537500;1952;;;;;;;;;;;;;;
5.182693;19540000;1960;;;;;;;;;;;;;;
5.185193;19542500;1965;;;;;;;;;;;;;;
5.187693;19545000;1983;;;;;;;;;;;;;;
5.190193;19547500;1997;;;;;;;;;;;;;;
5.192693;19550000;2000;;;;;;;;;;;;;;
5.195193;19552500;2000;;;;;;;;;;;;;;
5.197693;19555000;1996;;;;;;;;;;;;;;
5.200193;19557500;1993;19557146;432.981;860.051;-223.457;1286.672;-1595.424;-1915.554;19556706;-118.509;843.708;-448.109;6047.917;-17747.369;-28317.4
5.202693;19560000;1995;;;;;;;;;;;;;;
5.205193;19562500;2007;;;;;;;;;;;;;;
5.207693;19565000;2015;;;;;;;;;;;;;;
5.210193;19567500;2030;;;;;;;;;;;;;;
5.212693;19570000;2040;;;;;;;;;;;;;;
5.215193;19572500;2040;;;;;;;;;;;;;;
5.217693;19575000;2029;;;;;;;;;;;;;;
5.220193;19577500;2024;;;;;;;;;;;;;;
5.222693;19580000;2025;;;;;;;;;;;;;;
5.225193;19582500;2028;;;;;;;;;;;;;;
5.227693;19585000;2047;;;;;;;;;;;;;;
5.230193;19587500;2062;;;;;;;;;;;;;;
5.232693;19590000;2064;19590810;429.833;860.981;-226.052;1250.338;-1454.84;-1674.526;19590382;-138.875;839.983;-447.859;4400.208;-17901.688;-29125.779
5.235193;19592500;2063;;;;;;;;;;;;;;
5.237693;19595000;2059;;;;;;;;;;;;;;
5.240193;19597500;2055;;;;;;;;;;;;;;
5.242693;19600000;2046;;;;;;;;;;;;;;
5.245193;19602500;2062;;;;;;;;;;;;;;
5.247693;19605000;2076;;;;;;;;;;;;;;
5.250193;19607500;2091;;;;;;;;;;;;;;
5.252693;19610000;2096;;;;;;;;;;;;;;
5.255193;19612500;2092;;;;;;;;;;;;;;
5.257693;19615000;2088;;;;;;;;;;;;;;
5.260193;19617500;2077;;;;;;;;;;;;;;
5.262693;19620000;2077;;;;;;;;;;;;;;
5.265193;19622500;2088;;;;;;;;;;;;;;
5.267693;19625000;2104;19624496;426.446;862.419;-228.706;1678.259;-1694.473;-1945.612;19624057;-160.851;831.034;-446.572;3546.26;-18113.041;-29910.803
5.270193;19627500;2119;;;;;;;;;;;;;;
5.272693;19630000;2122;;;;;;;;;;;;;;
5.275193;19632500;2121;;;;;;;;;;;;;;
5.277693;19635000;2109;;;;;;;;;;;;;;
5.280193;19637500;2106;;;;;;;;;;;;;;
5.282693;19640000;2104;;;;;;;;;;;;;;
5.285193;19642500;2109;;;;;;;;;;;;;;
5.287693;19645000;2125;;;;;;;;;;;;;;
5.290193;19647500;2138;;;;;;;;;;;;;;
5.292693;19650000;2143;;;;;;;;;;;;;;
5.295193;19652500;2141;;;;;;;;;;;;;;
5.297693;19655000;2136;;;;;;;;;;;;;;
5.300193;19657500;2124;19658160;425.669;862.358;-232.686;1604.846;-1628.562;-2267.894;19657730;-177.538;829.602;-448.033;2991.822;-18652.889;-30849.949
5.302693;19660000;2123;;;;;;;;;;;;;;
5.305193;19662500;2123;;;;;;;;;;;;;;
5.307693;19665000;2142;;;;;;;;;;;;;;
5.310193;19667500;2156;;;;;;;;;;;;;;
5.312693;19670000;2168;;;;;;;;;;;;;;
5.315193;19672500;2158;;;;;;;;;;;;;;
5.317693;19675000;2154;;;;;;;;;;;;;;
5.320193;19677500;2141;;;;;;;;;;;;;;
5.322693;19680000;2141;;;;;;;;;;;;;;
5.325193;19682500;2155;;;;;;;;;;;;;;
5.327693;19685000;2168;;;;;;;;;;;;;;
5.330193;19687500;2175;;;;;;;;;;;;;;
5.332693;19690000;2184;;;;;;;;;;;;;;
5.335193;19692500;2174;;;;;;;;;;;;;;
5.337693;19695000;2172;;;;;;;;;;;;;;
5.340193;19697500;2166;;;;;;;;;;;;;;
5.342693;19700000;2158;;;;;;;;;;;;;;
5.345193;19702500;2169;19701743;423.435;862.519;-233.666;1089.728;-1198.009;-2350.937;19701306;-196.062;828.095;-447.311;1547.231;-19494.744;-32748.826
5.347693;19705000;2182;;;;;;;;;;;;;;
5.350193;19707500;2190;;;;;;;;;;;;;;
5.352693;19710000;2200;;;;;;;;;;;;;;
5.355193;19712500;2191;;;;;;;;;;;;;;
5.357693;19715000;2187;;;;;;;;;;;;;;
5.360193;19717500;2175;;;;;;;;;;;;;;
5.362693;19720000;2175;;;;;;;;;;;;;;
5.365193;19722500;2186;;;;;;;;;;;;;;
5.367693;19725000;2200;;;;;;;;;;;;;;
5.370193;19727500;2207;;;;;;;;19728395;-216.582;824.028;-444.49;-358.005;-20453.318;-34807.383
5.372693;19730000;2216;19728825;421.631;863.441;-234.103;174.679;-1020.421;-2516.015;;;;;;;
5.375193;19732500;2216;;;;;;;;;;;;;;
5.377693;19735000;2203;;;;;;;;;;;;;;
5.380193;19737500;2199;;;;;;;;;;;;;;
5.382693;19740000;2200;;;;;;;;;;;;;;
5.385193;19742500;2202;;;;;;;;;;;;;;
5.387693;19745000;2217;;;;;;;;;;;;;;
5.390193;19747500;2232;;;;;;;;;;;;;;
5.392693;19750000;2237;;;;;;;;;;;;;;
5.395193;19752500;2234;;;;;;;;;;;;;;
5.397693;19755000;2221;;;;;;;;;;;;;;
5.400193;19757500;2218;;;;;;;;;;;;;;
5.402693;19760000;2216;;;;;;;;;;;;;;
5.405193;19762500;2220;;;;;;;;;;;;;;
5.407693;19765000;2234;;;;;;;;;;;;;;
5.410193;19767500;2247;19767370;418.837;863.457;-238.929;471.758;-979.462;-2796.214;19766933;-237.296;817.03;-436.942;-2423.042;-21154.84;-37222.824
5.412693;19770000;2252;;;;;;;;;;;;;;
5.415193;19772500;2251;;;;;;;;;;;;;;
5.417693;19775000;2237;;;;;;;;;;;;;;
5.420193;19777500;2234;;;;;;;;;;;;;;
5.422693;19780000;2233;;;;;;;;;;;;;;
5.425193;19782500;2235;;;;;;;;;;;;;;
5.427693;19785000;2240;;;;;;;;;;;;;;
5.430193;19787500;2263;;;;;;;;;;;;;;
5.432693;19790000;2267;;;;;;;;;;;;;;
5.435193;19792500;2264;;;;;;;;;;;;;;
5.437693;19795000;2251;;;;;;;;;;;;;;
5.440193;19797500;2248;;;;;;;;;;;;;;
5.442693;19800000;2248;19800950;413.89;867.358;-239.793;1956.67;-1187.302;-3207.216;19800520;-259.811;804.128;-428.21;-4440.391;-21186.035;-39688.559
5.445193;19802500;2248;;;;;;;;;;;;;;
5.447693;19805000;2256;;;;;;;;;;;;;;
5.450193;19807500;2269;;;;;;;;;;;;;;
5.452693;19810000;2272;;;;;;;;;;;;;;
5.455193;19812500;2269;;;;;;;;;;;;;;
5.457693;19815000;2264;;;;;;;;;;;;;;
5.460193;19817500;2251;;;;;;;;;;;;;;
5.462693;19820000;2251;;;;;;;;;;;;;;
5.465193;19822500;2254;;;;;;;;;;;;;;
5.467693;19825000;2267;;;;;;;;;;;;;;
5.470193;19827500;2279;;;;;;;;;;;;;;
5.472693;19830000;2283;;;;;;;;19830989;-285.988;789.517;-418.151;-6378.746;-21043.732;-41517.379
5.475193;19832500;2271;19831421;413.051;870.289;-240.198;2899.211;-1334.437;-3792.792;;;;;;;
5.477693;19835000;2267;;;;;;;;;;;;;;
5.480193;19837500;2255;;;;;;;;;;;;;;
5.482693;19840000;2251;;;;;;;;;;;;;;
5.485193;19842500;2254;;;;;;;;;;;;;;
5.487693;19845000;2268;;;;;;;;;;;;;;
5.490193;19847500;2279;;;;;;;;;;;;;;
5.492693;19850000;2282;;;;;;;;;;;;;;
5.495193;19852500;2281;;;;;;;;;;;;;;
5.497693;19855000;2266;;;;;;;;;;;;;;
5.500193;19857500;2256;;;;;;;;;;;;;;
5.502693;19860000;2250;;;;;;;;;;;;;;
5.505193;19862500;2253;;;;;;;;;;;;;;
5.507693;19865000;2267;;;;;;;;;;;;;;
5.510193;19867500;2281;19868478;412.693;871.726;-241.078;4035.251;-1226.152;-3979.403;19868043;-306.66;776.339;-405.576;-8089.371;-21147.857;-42931.883
5.512693;19870000;2283;;;;;;;;;;;;;;
5.515193;19872500;2280;;;;;;;;;;;;;;
5.517693;19875000;2266;;;;;;;;;;;;;;
5.520193;19877500;2255;;;;;;;;;;;;;;
5.522693;19880000;2251;;;;;;;;;;;;;;
5.525193;19882500;2254;;;;;;;;;;;;;;
5.527693;19885000;2266;;;;;;;;;;;;;;
5.530193;19887500;2279;;;;;;;;;;;;;;
5.532693;19890000;2282;;;;;;;;;;;;;;
5.535193;19892500;2279;;;;;;;;;;;;;;
5.537693;19895000;2264;;;;;;;;;;;;;;
5.540193;19897500;2252;;;;;;;;;;;;;;
5.542693;19900000;2249;;;;;;;;;;;;;;
5.545193;19902500;2251;;;;;;;;;;;;;;
5.547693;19905000;2267;;;;;;;;;;;;;;
5.550193;19907500;2270;;;;;;;;;;;;;;
5.552693;19910000;2279;;;;;;;;;;;;;;
5.555193;19912500;2270;19912136;408.443;869.424;-238.833;4254.363;-1012.157;-4199.558;19911704;-329.666;759.439;-393.331;-10238.59;-21190.777;-43950.164
5.557693;19915000;2263;;;;;;;;;;;;;;
5.560193;19917500;2252;;;;;;;;;;;;;;
5.562693;19920000;2249;;;;;;;;;;;;;;
5.565193;19922500;2250;;;;;;;;;;;;;;
5.567693;19925000;2253;;;;;;;;;;;;;;
5.570193;19927500;2269;;;;;;;;;;;;;;
5.572693;19930000;2279;;;;;;;;;;;;;;
5.575193;19932500;2270;;;;;;;;;;;;;;
5.577693;19935000;2264;;;;;;;;;;;;;;
5.580193;19937500;2252;;;;;;;;;;;;;;
5.582693;19940000;2248;;;;;;;;;;;;;;
5.585193;19942500;2252;;;;;;;;;;;;;;
5.587693;19945000;2264;;;;;;;;;;;;;;
5.590193;19947500;2279;;;;;;;;;;;;;;
5.592693;19950000;2280;;;;;;;;;;;;;;
5.595193;19952500;2280;;;;;;;;;;;;;;
5.597693;19955000;2266;19955881;403.85;869.214;-241.732;4684.77;-1116.424;-4670.33;19955451;-355.114;736.113;-381.357;-10820.41;-21060.926;-44164.156
5.600193;19957500;2252;;;;;;;;;;;;;;
5.602693;19960000;2249;;;;;;;;;;;;;;
5.605193;19962500;2252;;;;;;;;;;;;;;
5.607693;19965000;2265;;;;;;;;;;;;;;
5.610193;19967500;2269;;;;;;;;;;;;;;
5.612693;19970000;2281;;;;;;;;;;;;;;
5.615193;19972500;2270;;;;;;;;;;;;;;
5.617693;19975000;2264;;;;;;;;;;;;;;
5.620193;19977500;2249;;;;;;;;;;;;;;
5.622693;19980000;2248;;;;;;;;;;;;;;
5.625193;19982500;2248;;;;;;;;;;;;;;
5.627693;19985000;2254;;;;;;;;;;;;;;
5.630193;19987500;2267;;;;;;;;;;;;;;
5.632693;19990000;2269;19989738;398.731;871.199;-244.768;4704.281;-1306.916;-4915.875;19989300;-379.833;720.389;-370.78;-10600.515;-20924.441;-44441.824
5.635193;19992500;2266;;;;;;;;;;;;;;
5.637693;19995000;2253;;;;;;;;;;;;;;
5.640193;19997500;2247;;;;;;;;;;;;;;
5.642693;20000000;2236;;;;;;;;;;;;;;
5.645193;20002500;2247;;;;;;;;;;;;;;
5.647693;20005000;2251;;;;;;;;;;;;;;
5.650193;20007500;2264;;;;;;;;;;;;;;
5.652693;20010000;2268;;;;;;;;;;;;;;
5.655193;20012500;2266;;;;;;;;;;;;;;
5.657693;20015000;2251;;;;;;;;;;;;;;
5.660193;20017500;2233;;;;;;;;;;;;;;
5.662693;20020000;2235;;;;;;;;;;;;;;
5.665193;20022500;2239;20023579;394.374;869.906;-247.127;4850.567;-1254.257;-5161.832;20023149;-402.376;704.866;-358.445;-10788.864;-20974.156;-44578.297
5.667693;20025000;2249;;;;;;;;;;;;;;
5.670193;20027500;2265;;;;;;;;;;;;;;
5.672693;20030000;2270;;;;;;;;;;;;;;
5.675193;20032500;2266;;;;;;;;;;;;;;
5.677693;20035000;2253;;;;;;;;;;;;;;
5.680193;20037500;2250;;;;;;;;;;;;;;
5.682693;20040000;2238;;;;;;;;;;;;;;
5.685193;20042500;2248;;;;;;;;;;;;;;
5.687693;20045000;2254;;;;;;;;;;;;;;
5.690193;20047500;2269;;;;;;;;;;;;;;
5.692693;20050000;2279;;;;;;;;;;;;;;
5.695193;20052500;2270;;;;;;;;;;;;;;
5.697693;20055000;2266;;;;;;;;;;;;;;
5.700193;20057500;2250;20057441;390.802;869.08;-250.472;4920.414;-1333.732;-5448.427;20056996;-426.043;682.109;-345.36;-10994.483;-20817.072;-44229.758
5.702693;20060000;2249;;;;;;;;;;;;;;
5.705193;20062500;2252;;;;;;;;;;;;;;
5.707693;20065000;2263;;;;;;;;;;;;;;
5.710193;20067500;2270;;;;;;;;;;;;;;
5.712693;20070000;2281;;;;;;;;;;;;;;
5.715193;20072500;2270;;;;;;;;;;;;;;
5.717693;20075000;2264;;;;;;;;;;;;;;
5.720193;20077500;2250;;;;;;;;;;;;;;
5.722693;20080000;2239;;;;;;;;;;;;;;
5.725193;20082500;2246;;;;;;;;;;;;;;
5.727693;20085000;2254;;;;;;;;;;;;;;
5.730193;20087500;2265;;;;;;;;;;;;;;
5.732693;20090000;2268;20089631;385.621;869.143;-254.04;5038.831;-1523.42;-5664.693;20089209;-448.569;658.52;-330.44;-10532.696;-20458.281;-42981.645
5.735193;20092500;2266;;;;;;;;;;;;;;
5.737693;20095000;2253;;;;;;;;;;;;;;
5.740193;20097500;2237;;;;;;;;;;;;;;
5.742693;20100000;2232;;;;;;;;;;;;;;
5.745193;20102500;2233;;;;;;;;;;;;;;
5.747693;20105000;2247;;;;;;;;;;;;;;
5.750193;20107500;2251;;;;;;;;;;;;;;
5.752693;20110000;2254;;;;;;;;;;;;;;
5.755193;20112500;2251;;;;;;;;;;;;;;
5.757693;20115000;2237;;;;;;;;;;;;;;
5.760193;20117500;2221;;;;;;;;;;;;;;
5.762693;20120000;2217;;;;;;;;;;;;;;
5.765193;20122500;2219;20123497;381.864;869.209;-256.911;5200.764;-1802.499;-5812.833;20123057;-469.939;638.392;-313.638;-9957.499;-19817.742;-41179.5
5.767693;20125000;2220;;;;;;;;;;;;;;
5.770193;20127500;2231;;;;;;;;;;;;;;
5.772693;20130000;2222;;;;;;;;;;;;;;
5.775193;20132500;2206;;;;;;;;;;;;;;
5.777693;20135000;2184;;;;;;;;;;;;;;
5.780193;20137500;2154;;;;;;;;;;;;;;
5.782693;20140000;2124;;;;;;;;;;;;;;
5.785193;20142500;2108;;;;;;;;;;;;;;
5.787693;20145000;2093;;;;;;;;;;;;;;
5.790193;20147500;2088;;;;;;;;;;;;;;
5.792693;20150000;2062;;;;;;;;;;;;;;
5.795193;20152500;2040;;;;;;;;;;;;;;
5.797693;20155000;2008;;;;;;;;;;;;;;
5.800193;20157500;1975;;;;;;;;;;;;;;
5.802693;20160000;1947;;;;;;;;;;;;;;
5.805193;20162500;1931;;;;;;;;;;;;;;
5.807693;20165000;1914;;;;;;;;;;;;;;
5.810193;20167500;1912;20167153;377.57;869.925;-259.785;5291.601;-1713.249;-5582.567;20166718;-489.996;613.213;-296.437;-10220.437;-18006.105;-38127.398
5.812693;20170000;1898;;;;;;;;;;;;;;
5.815193;20172500;1880;;;;;;;;;;;;;;
5.817693;20175000;1850;;;;;;;;;;;;;;
5.820193;20177500;1831;;;;;;;;;;;;;;
5.822693;20180000;1805;;;;;;;;;;;;;;
5.825193;20182500;1792;;;;;;;;;;;;;;
5.827693;20185000;1790;;;;;;;;;;;;;;
5.830193;20187500;1790;;;;;;;;;;;;;;
5.832693;20190000;1785;;;;;;;;;;;;;;
5.835193;20192500;1773;;;;;;;;;;;;;;
5.837693;20195000;1754;;;;;;;;;;;;;;
5.840193;20197500;1737;;;;;;;;;;;;;;
5.842693;20200000;1723;20200999;373.667;870.648;-264.779;7082.396;-495.774;-5114.001;20200567;-510.331;588.768;-284.061;-9892.728;-15987.551;-33921.527
5.845193;20202500;1723;;;;;;;;;;;;;;
5.847693;20205000;1725;;;;;;;;;;;;;;
5.850193;20207500;1741;;;;;;;;;;;;;;
5.852693;20210000;1738;;;;;;;;;;;;;;
5.855193;20212500;1727;;;;;;;;;;;;;;
5.857693;20215000;1720;;;;;;;;;;;;;;
5.860193;20217500;1707;;;;;;;;;;;;;;
5.862693;20220000;1704;;;;;;;;;;;;;;
5.865193;20222500;1704;;;;;;;;;;;;;;
5.867693;20225000;1711;;;;;;;;;;;;;;
5.870193;20227500;1725;;;;;;;;;;;;;;
5.872693;20230000;1735;;;;;;;;20230949;-527.893;570.236;-268.327;-9367.466;-14094.423;-28813.389
5.875193;20232500;1736;20231379;372.039;874.098;-265.515;6514.776;-667.423;-4164.863;;;;;;;
5.877693;20235000;1724;;;;;;;;;;;;;;
5.880193;20237500;1719;;;;;;;;;;;;;;
5.882693;20240000;1719;;;;;;;;;;;;;;
5.885193;20242500;1722;;;;;;;;;;;;;;
5.887693;20245000;1738;;;;;;;;;;;;;;
5.890193;20247500;1754;;;;;;;;;;;;;;
5.892693;20250000;1769;;;;;;;;;;;;;;
5.895193;20252500;1770;;;;;;;;;;;;;;
5.897693;20255000;1767;;;;;;;;;;;;;;
5.900193;20257500;1757;;;;;;;;;;;;;;
5.902693;20260000;1759;;;;;;;;;;;;;;
5.905193;20262500;1772;;;;;;;;;;;;;;
5.907693;20265000;1787;;;;;;;;;;;;;;
5.910193;20267500;1807;20268354;369.681;876.051;-264.116;5801.85;-385.989;-3102.62;20267916;-542.832;557.133;-257.375;-7930.468;-11781.014;-23164.844
5.912693;20270000;1823;;;;;;;;;;;;;;
5.915193;20272500;1838;;;;;;;;;;;;;;
5.917693;20275000;1850;;;;;;;;;;;;;;
5.920193;20277500;1867;;;;;;;;;;;;;;
5.922693;20280000;1896;;;;;;;;;;;;;;
5.925193;20282500;1931;;;;;;;;;;;;;;
5.927693;20285000;1978;;;;;;;;;;;;;;
5.930193;20287500;2030;;;;;;;;;;;;;;
5.932693;20290000;2079;;;;;;;;;;;;;;
5.935193;20292500;2123;;;;;;;;;;;;;;
5.937693;20295000;2154;;;;;;;;;;;;;;
5.940193;20297500;2184;;;;;;;;;;;;;;
5.942693;20300000;2204;;;;;;;;;;;;;;
5.945193;20302500;2248;;;;;;;;;;;;;;
5.947693;20305000;2287;;;;;;;;;;;;;;
5.950193;20307500;2345;;;;;;;;;;;;;;
5.952693;20310000;2383;;;;;;;;;;;;;;
5.955193;20312500;2423;20311921;367.637;877.004;-267.435;5123.694;99.248;-2499.927;20311491;-552.973;558.623;-252.583;-5845.194;-9634.9;-17364.289
5.957693;20315000;2442;;;;;;;;;;;;;;
5.960193;20317500;2460;;;;;;;;;;;;;;
5.962693;20320000;2478;;;;;;;;;;;;;;
5.965193;20322500;2510;;;;;;;;;;;;;;
5.967693;20325000;2542;;;;;;;;;;;;;;
5.970193;20327500;2589;;;;;;;;;;;;;;
5.972693;20330000;2632;;;;;;;;;;;;;;
5.975193;20332500;2652;;;;;;;;;;;;;;
5.977693;20335000;2667;;;;;;;;;;;;;;
5.980193;20337500;2681;;;;;;;;;;;;;;
5.982693;20340000;2697;;;;;;;;;;;;;;
5.985193;20342500;2717;;;;;;;;;;;;;;
5.987693;20345000;2749;;;;;;;;;;;;;;
5.990193;20347500;2780;;;;;;;;;;;;;;
5.992693;20350000;2810;;;;;;;;;;;;;;
5.995193;20352500;2828;;;;;;;;;;;;;;
5.997693;20355000;2841;20355243;363.34;882.509;-272.077;4249.76;266.223;-1863.93;20354804;-562.077;556.343;-245.98;-4767.185;-7609.218;-11718.574
6.000193;20357500;2843;;;;;;;;;;;;;;
6.002693;20360000;2847;;;;;;;;;;;;;;
6.005193;20362500;2871;;;;;;;;;;;;;;
6.007693;20365000;2892;;;;;;;;;;;;;;
6.010193;20367500;2920;;;;;;;;;;;;;;
6.012693;20370000;2941;;;;;;;;;;;;;;
6.015193;20372500;2955;;;;;;;;;;;;;;
6.017693;20375000;2958;;;;;;;;;;;;;;
6.020193;20377500;2956;;;;;;;;;;;;;;
6.022693;20380000;2969;;;;;;;;;;;;;;
6.025193;20382500;2974;;;;;;;;;;;;;;
6.027693;20385000;2999;;;;;;;;;;;;;;
6.030193;20387500;3021;20388734;362.564;884.616;-294.804;1069.709;-3200.713;-1805.296;20388306;-564.937;567.023;-248.138;-2908.325;-6035.257;-6556.833
6.032693;20390000;3049;;;;;;;;;;;;;;
6.035193;20392500;3063;;;;;;;;;;;;;;
6.037693;20395000;3062;;;;;;;;;;;;;;
6.040193;20397500;3062;;;;;;;;;;;;;;
6.042693;20400000;3065;;;;;;;;;;;;;;
6.045193;20402500;3071;;;;;;;;;;;;;;
6.047693;20405000;3100;;;;;;;;;;;;;;
6.050193;20407500;3130;;;;;;;;;;;;;;
6.052693;20410000;3148;;;;;;;;;;;;;;
6.055193;20412500;3164;;;;;;;;;;;;;;
6.057693;20415000;3166;;;;;;;;;;;;;;
6.060193;20417500;3167;;;;;;;;;;;;;;
6.062693;20420000;3177;;;;;;;;;;;;;;
6.065193;20422500;3194;20422334;363.102;880.462;-292.923;625.974;-2329.303;-586.281;20421894;-563.53;584.525;-257.63;-2159.159;-4175.994;-2317.304
6.067693;20425000;3226;;;;;;;;;;;;;;
6.070193;20427500;3257;;;;;;;;;;;;;;
6.072693;20430000;3290;;;;;;;;;;;;;;
6.075193;20432500;3307;;;;;;;;;;;;;;
6.077693;20435000;3321;;;;;;;;;;;;;;
6.080193;20437500;3324;;;;;;;;;;;;;;
6.082693;20440000;3337;;;;;;;;;;;;;;
6.085193;20442500;3352;;;;;;;;;;;;;;
6.087693;20445000;3384;;;;;;;;;;;;;;
6.090193;20447500;3417;;;;;;;;;;;;;;
6.092693;20450000;3449;;;;;;;;;;;;;;
6.095193;20452500;3466;;;;;;;;;;;;;;
6.097693;20455000;3469;20455742;366.065;877.943;-298.62;1470.113;-2304.275;856.158;20455307;-565.054;592.442;-263.921;-658.638;-3468.007;432.749
6.100193;20457500;3479;;;;;;;;;;;;;;
6.102693;20460000;3471;;;;;;;;;;;;;;
6.105193;20462500;3487;;;;;;;;;;;;;;
6.107693;20465000;3513;;;;;;;;;;;;;;
6.110193;20467500;3544;;;;;;;;;;;;;;
6.112693;20470000;3564;;;;;;;;;;;;;;
6.115193;20472500;3579;;;;;;;;;;;;;;
6.117693;20475000;3579;;;;;;;;;;;;;;
6.120193;20477500;3580;;;;;;;;;;;;;;
6.122693;20480000;3579;;;;;;;;;;;;;;
6.125193;20482500;3591;;;;;;;;;;;;;;
6.127693;20485000;3609;;;;;;;;;;;;;;
6.130193;20487500;3629;20487258;364.689;878.96;-300.458;1349.357;-1777.374;1782.412;20486826;-571.492;609.046;-268.074;821.106;-2273.044;2298.049
6.132693;20490000;3647;;;;;;;;;;;;;;
6.135193;20492500;3658;;;;;;;;;;;;;;
6.137693;20495000;3657;;;;;;;;;;;;;;
6.140193;20497500;3644;;;;;;;;;;;;;;
6.142693;20500000;3639;;;;;;;;;;;;;;
6.145193;20502500;3643;;;;;;;;;;;;;;
6.147693;20505000;3659;;;;;;;;;;;;;;
6.150193;20507500;3675;;;;;;;;;;;;;;
6.152693;20510000;3694;;;;;;;;;;;;;;
6.155193;20512500;3692;;;;;;;;;;;;;;
6.157693;20515000;3688;;;;;;;;;;;;;;
6.160193;20517500;3661;;;;;;;;;;;;;;
6.162693;20520000;3656;20520496;366.938;879.89;-302.405;486.514;-1169.63;1994.729;20520066;-569.044;617.798;-272.146;1035.551;-1589.767;3950.209
6.165193;20522500;3656;;;;;;;;;;;;;;
6.167693;20525000;3659;;;;;;;;;;;;;;
6.170193;20527500;3676;;;;;;;;;;;;;;
6.172693;20530000;3688;;;;;;;;;;;;;;
6.175193;20532500;3690;;;;;;;;;;;;;;
6.177693;20535000;3661;;;;;;;;;;;;;;
6.180193;20537500;3647;;;;;;;;;;;;;;
6.182693;20540000;3631;;;;;;;;;;;;;;
6.185193;20542500;3625;;;;;;;;;;;;;;
6.187693;20545000;3628;;;;;;;;;;;;;;
6.190193;20547500;3640;;;;;;;;;;;;;;
6.192693;20550000;3641;;;;;;;;;;;;;;
6.195193;20552500;3641;;;;;;;;;;;;;;
6.197693;20555000;3615;;;;;;;;;;;;;;
6.200193;20557500;3593;;;;;;;;;;;;;;
6.202693;20560000;3565;;;;;;;;;;;;;;
6.205193;20562500;3550;20563651;367.605;878.254;-302.053;528.688;-1132.149;2450.618;20563206;-568.591;634.366;-275.204;2324.711;-1332.653;4059.386
6.207693;20565000;3548;;;;;;;;;;;;;;
6.210193;20567500;3549;;;;;;;;;;;;;;
6.212693;20570000;3552;;;;;;;;;;;;;;
6.215193;20572500;3543;;;;;;;;;;;;;;
6.217693;20575000;3518;;;;;;;;;;;;;;
6.220193;20577500;3488;;;;;;;;;;;;;;
6.222693;20580000;3470;;;;;;;;;;;;;;
6.225193;20582500;3452;;;;;;;;;;;;;;
6.227693;20585000;3450;;;;;;;;;;;;;;
6.230193;20587500;3454;;;;;;;;;;;;;;
6.232693;20590000;3454;;;;;;;;;;;;;;
6.235193;20592500;3438;;;;;;;;;;;;;;
6.237693;20595000;3419;;;;;;;;;;;;;;
6.240193;20597500;3390;20596870;370.575;888.131;-297.827;481.254;-905.791;2558.649;20596447;-577.463;638.18;-274.73;1726.35;-482.896;4567.354
6.242693;20600000;3372;;;;;;;;;;;;;;
6.245193;20602500;3357;;;;;;;;;;;;;;
6.247693;20605000;3353;;;;;;;;;;;;;;
6.250193;20607500;3356;;;;;;;;;;;;;;
6.252693;20610000;3357;;;;;;;;;;;;;;
6.255193;20612500;3350;;;;;;;;;;;;;;
6.257693;20615000;3326;;;;;;;;;;;;;;
6.260193;20617500;3306;;;;;;;;;;;;;;
6.262693;20620000;3288;;;;;;;;;;;;;;
6.265193;20622500;3272;;;;;;;;;;;;;;
6.267693;20625000;3264;;;;;;;;20626222;-576.942;639.034;-276.591;1317.158;-82.938;5686.924
6.270193;20627500;3274;20626667;368.65;883.783;-293.165;-305.809;-704.752;2415.404;;;;;;;
6.272693;20630000;3275;;;;;;;;;;;;;;
6.275193;20632500;3263;;;;;;;;;;;;;;
6.277693;20635000;3245;;;;;;;;;;;;;;
6.280193;20637500;3224;;;;;;;;;;;;;;
6.282693;20640000;3199;;;;;;;;;;;;;;
6.285193;20642500;3193;;;;;;;;;;;;;;
6.287693;20645000;3183;;;;;;;;;;;;;;
6.290193;20647500;3192;;;;;;;;;;;;;;
6.292693;20650000;3193;;;;;;;;;;;;;;
6.295193;20652500;3181;;;;;;;;;;;;;;
6.297693;20655000;3163;;;;;;;;;;;;;;
6.300193;20657500;3134;;;;;;;;;;;;;;
6.302693;20660000;3116;;;;;;;;;;;;;;
6.305193;20662500;3111;20663004;373.807;879.927;-292.049;-507.518;-645.451;2403.134;20662581;-570.757;653.052;-281.745;1552.3;-175.479;5879.453
6.307693;20665000;3102;;;;;;;;;;;;;;
6.310193;20667500;3111;;;;;;;;;;;;;;
6.312693;20670000;3103;;;;;;;;;;;;;;
6.315193;20672500;3098;;;;;;;;;;;;;;
6.317693;20675000;3083;;;;;;;;;;;;;;
6.320193;20677500;3054;;;;;;;;;;;;;;
6.322693;20680000;3033;;;;;;;;;;;;;;
6.325193;20682500;3022;;;;;;;;;;;;;;
6.327693;20685000;3021;;;;;;;;;;;;;;
6.330193;20687500;3021;;;;;;;;;;;;;;
6.332693;20690000;3021;;;;;;;;;;;;;;
6.335193;20692500;3006;;;;;;;;;;;;;;
6.337693;20695000;3002;20696180;378.235;881.9;-290.464;-794.517;-486.304;2523.165;20695735;-571.767;652.498;-281.602;806.622;95.358;5969.605
6.340193;20697500;2982;;;;;;;;;;;;;;
6.342693;20700000;2958;;;;;;;;;;;;;;
6.345193;20702500;2943;;;;;;;;;;;;;;
6.347693;20705000;2941;;;;;;;;;;;;;;
6.350193;20707500;2943;;;;;;;;;;;;;;
6.352693;20710000;2938;;;;;;;;;;;;;;
6.355193;20712500;2921;;;;;;;;;;;;;;
6.357693;20715000;2895;;;;;;;;;;;;;;
6.360193;20717500;2874;;;;;;;;;;;;;;
6.362693;20720000;2847;;;;;;;;;;;;;;
6.365193;20722500;2842;;;;;;;;;;;;;;
6.367693;20725000;2829;;;;;;;;;;;;;;
6.370193;20727500;2829;20727415;376.245;878.688;-288.781;-1020.354;-323.739;2582.507;20726993;-570.745;655.747;-280.271;1068.604;22.777;6428.0
6.372693;20730000;2824;;;;;;;;;;;;;;
6.375193;20732500;2808;;;;;;;;;;;;;;
6.377693;20735000;2781;;;;;;;;;;;;;;
6.380193;20737500;2760;;;;;;;;;;;;;;
6.382693;20740000;2735;;;;;;;;;;;;;;
6.385193;20742500;2718;;;;;;;;;;;;;;
6.387693;20745000;2715;;;;;;;;;;;;;;
6.390193;20747500;2713;;;;;;;;;;;;;;
6.392693;20750000;2702;;;;;;;;;;;;;;
6.395193;20752500;2685;;;;;;;;;;;;;;
6.397693;20755000;2667;;;;;;;;;;;;;;
6.400193;20757500;2636;;;;;;;;;;;;;;
6.402693;20760000;2616;20760499;377.886;877.978;-288.043;-968.899;-156.614;2561.444;20760060;-569.42;661.414;-281.764;855.048;330.951;6681.038
6.405193;20762500;2604;;;;;;;;;;;;;;
6.407693;20765000;2592;;;;;;;;;;;;;;
6.410193;20767500;2599;;;;;;;;;;;;;;
6.412693;20770000;2589;;;;;;;;;;;;;;
6.415193;20772500;2571;;;;;;;;;;;;;;
6.417693;20775000;2541;;;;;;;;;;;;;;
6.420193;20777500;2520;;;;;;;;;;;;;;
6.422693;20780000;2502;;;;;;;;;;;;;;
6.425193;20782500;2489;;;;;;;;;;;;;;
6.427693;20785000;2478;;;;;;;;;;;;;;
6.430193;20787500;2475;;;;;;;;;;;;;;
6.432693;20790000;2471;;;;;;;;;;;;;;
6.435193;20792500;2456;20793467;378.011;875.022;-288.464;-1001.829;48.529;2488.497;20793040;-567.966;660.399;-280.742;551.108;699.841;7043.048
6.437693;20795000;2430;;;;;;;;;;;;;;
6.440193;20797500;2408;;;;;;;;;;;;;;
6.442693;20800000;2382;;;;;;;;;;;;;;
6.445193;20802500;2376;;;;;;;;;;;;;;
6.447693;20805000;2366;;;;;;;;;;;;;;
6.450193;20807500;2366;;;;;;;;;;;;;;
6.452693;20810000;2362;;;;;;;;;;;;;;
6.455193;20812500;2346;;;;;;;;;;;;;;
6.457693;20815000;2330;;;;;;;;;;;;;;
6.460193;20817500;2301;;;;;;;;;;;;;;
6.462693;20820000;2285;;;;;;;;;;;;;;
6.465193;20822500;2270;;;;;;;;;;;;;;
6.467693;20825000;2267;;;;;;;;20825933;-567.615;661.478;-279.893;693.303;1365.286;7734.771
6.470193;20827500;2270;20826373;377.362;873.727;-286.405;-559.3;144.54;2401.697;;;;;;;
6.472693;20830000;2267;;;;;;;;;;;;;;
6.475193;20832500;2252;;;;;;;;;;;;;;
6.477693;20835000;2234;;;;;;;;;;;;;;
6.480193;20837500;2207;;;;;;;;;;;;;;
6.482693;20840000;2191;;;;;;;;;;;;;;
6.485193;20842500;2187;;;;;;;;;;;;;;
6.487693;20845000;2172;;;;;;;;;;;;;;
6.490193;20847500;2184;;;;;;;;;;;;;;
6.492693;20850000;2175;;;;;;;;;;;;;;
6.495193;20852500;2170;;;;;;;;;;;;;;
6.497693;20855000;2152;;;;;;;;;;;;;;
6.500193;20857500;2126;;;;;;;;;;;;;;
6.502693;20860000;2108;;;;;;;;;;;;;;
6.505193;20862500;2104;;;;;;;;;;;;;;
6.507693;20865000;2104;;;;;;;;;;;;;;
6.510193;20867500;2106;;;;;;;;;;;;;;
6.512693;20870000;2103;20869243;379.472;872.009;-286.469;-313.022;458.0;2312.237;20868812;-564.452;665.815;-283.826;457.388;2150.584;8790.032
6.515193;20872500;2091;;;;;;;;;;;;;;
6.517693;20875000;2073;;;;;;;;;;;;;;
6.520193;20877500;2046;;;;;;;;;;;;;;
6.522693;20880000;2029;;;;;;;;;;;;;;
6.525193;20882500;2026;;;;;;;;;;;;;;
6.527693;20885000;2027;;;;;;;;;;;;;;
6.530193;20887500;2026;;;;;;;;;;;;;;
6.532693;20890000;2025;;;;;;;;;;;;;;
6.535193;20892500;2014;;;;;;;;;;;;;;
6.537693;20895000;1991;;;;;;;;;;;;;;
6.540193;20897500;1980;;;;;;;;;;;;;;
6.542693;20900000;1967;;;;;;;;;;;;;;
6.545193;20902500;1960;20902231;382.294;869.589;-287.084;-92.184;550.163;2517.75;20901793;-559.263;668.112;-286.519;914.893;2626.68;9460.468
6.547693;20905000;1960;;;;;;;;;;;;;;
6.550193;20907500;1963;;;;;;;;;;;;;;
6.552693;20910000;1949;;;;;;;;;;;;;;
6.555193;20912500;1959;;;;;;;;;;;;;;
6.557693;20915000;1935;;;;;;;;;;;;;;
6.560193;20917500;1919;;;;;;;;;;;;;;
6.562693;20920000;1911;;;;;;;;;;;;;;
6.565193;20922500;1901;;;;;;;;;;;;;;
6.567693;20925000;1888;;;;;;;;;;;;;;
6.570193;20927500;1913;20928531;384.803;870.89;-286.491;174.925;543.217;2716.05;20928101;-556.828;672.142;-287.956;1687.274;3090.346;10274.132
6.572693;20930000;1913;;;;;;;;;;;;;;
6.575193;20932500;1903;;;;;;;;;;;;;;
6.577693;20935000;1885;;;;;;;;;;;;;;
6.580193;20937500;1867;;;;;;;;;;;;;;
6.582693;20940000;1854;;;;;;;;;;;;;;
6.585193;20942500;1852;;;;;;;;;;;;;;
6.587693;20945000;1853;;;;;;;;;;;;;;
6.590193;20947500;1865;;;;;;;;;;;;;;
6.592693;20950000;1866;;;;;;;;;;;;;;
6.595193;20952500;1865;;;;;;;;;;;;;;
6.597693;20955000;1847;;;;;;;;;;;;;;
6.600193;20957500;1832;;;;;;;;;;;;;;
6.602693;20960000;1818;;;;;;;;;;;;;;
6.605193;20962500;1816;;;;;;;;;;;;;;
6.607693;20965000;1818;;;;;;;;20966118;-550.77;680.576;-291.712;2063.598;3486.641;11372.612
6.610193;20967500;1822;20966550;385.907;868.838;-282.842;1.242;641.181;2911.873;;;;;;;
6.612693;20970000;1831;;;;;;;;;;;;;;
6.615193;20972500;1820;;;;;;;;;;;;;;
6.617693;20975000;1806;;;;;;;;;;;;;;
6.620193;20977500;1789;;;;;;;;;;;;;;
6.622693;20980000;1784;;;;;;;;;;;;;;
6.625193;20982500;1773;;;;;;;;;;;;;;
6.627693;20985000;1775;;;;;;;;;;;;;;
6.630193;20987500;1786;;;;;;;;;;;;;;
6.632693;20990000;1788;;;;;;;;;;;;;;
6.635193;20992500;1785;;;;;;;;;;;;;;
6.637693;20995000;1772;;;;;;;;;;;;;;
6.640193;20997500;1756;;;;;;;;;;;;;;
6.642693;21000000;1744;20999447;387.711;868.693;-283.096;-53.508;739.497;3206.404;20999011;-547.143;686.569;-292.956;2155.543;3657.497;12197.856
6.645193;21002500;1741;;;;;;;;;;;;;;
6.647693;21005000;1752;;;;;;;;;;;;;;
6.650193;21007500;1757;;;;;;;;;;;;;;
6.652693;21010000;1760;;;;;;;;;;;;;;
6.655193;21012500;1758;;;;;;;;;;;;;;
6.657693;21015000;1743;;;;;;;;;;;;;;
6.660193;21017500;1727;;;;;;;;;;;;;;
6.662693;21020000;1722;;;;;;;;;;;;;;
6.665193;21022500;1721;;;;;;;;;;;;;;
6.667693;21025000;1724;;;;;;;;;;;;;;
6.670193;21027500;1727;;;;;;;;;;;;;;
6.672693;21030000;1738;21029218;389.609;868.453;-282.782;-95.895;785.647;3219.771;21028785;-542.24;690.329;-297.169;1970.766;4187.747;13347.151
6.675193;21032500;1738;;;;;;;;;;;;;;
6.677693;21035000;1721;;;;;;;;;;;;;;
6.680193;21037500;1709;;;;;;;;;;;;;;
6.682693;21040000;1696;;;;;;;;;;;;;;
6.685193;21042500;1692;;;;;;;;;;;;;;
6.687693;21045000;1705;;;;;;;;;;;;;;
6.690193;21047500;1709;;;;;;;;;;;;;;
6.692693;21050000;1720;;;;;;;;;;;;;;
6.695193;21052500;1719;;;;;;;;;;;;;;
6.697693;21055000;1706;;;;;;;;;;;;;;
6.700193;21057500;1689;;;;;;;;;;;;;;
6.702693;21060000;1677;;;;;;;;;;;;;;
6.705193;21062500;1676;;;;;;;;;;;;;;
6.707693;21065000;1688;21065575;391.393;869.267;-283.222;357.337;731.49;3446.407;21065145;-536.631;698.458;-298.799;2538.102;4491.547;14009.356
6.710193;21067500;1692;;;;;;;;;;;;;;
6.712693;21070000;1707;;;;;;;;;;;;;;
6.715193;21072500;1704;;;;;;;;;;;;;;
6.717693;21075000;1690;;;;;;;;;;;;;;
6.720193;21077500;1678;;;;;;;;;;;;;;
6.722693;21080000;1671;;;;;;;;;;;;;;
6.725193;21082500;1672;;;;;;;;;;;;;;
6.727693;21085000;1677;;;;;;;;;;;;;;
6.730193;21087500;1690;;;;;;;;;;;;;;
6.732693;21090000;1689;;;;;;;;;;;;;;
6.735193;21092500;1691;;;;;;;;;;;;;;
6.737693;21095000;1678;;;;;;;;;;;;;;
