timestamp_s;timestamp_us;emg_raw;imu1_timestamp_us;imu1_ax;imu1_ay;imu1_az;imu1_gx;imu1_gy;imu1_gz;imu2_timestamp_us;imu2_ax;imu2_ay;imu2_az;imu2_gx;imu2_gy;imu2_gz
0.0;6282243;;6282243;138.35;-450.444;908.987;494.176;-112.306;31.895;;;;;;;
0.028835;6311078;;6311078;138.331;-450.156;909.197;515.405;-104.066;32.925;6310637;189.42;126.306;976.914;1679.796;-172.758;-320.539
0.050252;6332495;;6332495;138.295;-450.212;909.096;519.822;-105.862;29.966;6332069;189.447;126.469;976.771;1681.994;-173.745;-319.387
0.080555;6362798;;6362798;138.261;-450.113;909.385;538.894;-103.194;29.78;6362358;189.307;126.361;976.763;1683.207;-173.37;-321.355
0.087757;6370000;156;;;;;;;;;;;;;;
0.090257;6372500;168;;;;;;;;;;;;;;
0.092757;6375000;155;;;;;;;;;;;;;;
0.095257;6377500;156;;;;;;;;;;;;;;
0.097757;6380000;151;;;;;;;;;;;;;;
0.100257;6382500;137;;;;;;;;;;;;;;
0.102757;6385000;126;;;;;;;;;;;;;;
0.105257;6387500;151;;;;;;;;;;;;;;
0.107757;6390000;284;;;;;;;;6391185;189.291;126.186;976.7;1686.109;-170.827;-325.413
0.110257;6392500;202;6391620;138.193;-450.0;909.672;551.324;-100.222;30.041;;;;;;;
0.112757;6395000;189;;;;;;;;;;;;;;
0.115257;6397500;176;;;;;;;;;;;;;;
0.117757;6400000;151;;;;;;;;;;;;;;
0.120257;6402500;136;;;;;;;;;;;;;;
0.122757;6405000;126;;;;;;;;;;;;;;
0.125257;6407500;141;;;;;;;;;;;;;;
0.127757;6410000;135;;;;;;;;;;;;;;
0.130257;6412500;142;6413049;138.133;-449.863;909.591;552.633;-102.648;27.664;6412617;189.379;126.148;976.763;1679.678;-170.598;-325.329
0.132757;6415000;155;;;;;;;;;;;;;;
0.135257;6417500;377;;;;;;;;;;;;;;
0.137757;6420000;235;;;;;;;;;;;;;;
0.140257;6422500;168;;;;;;;;;;;;;;
0.142757;6425000;155;;;;;;;;;;;;;;
0.145257;6427500;126;;;;;;;;;;;;;;
0.147757;6430000;133;;;;;;;;;;;;;;
0.150257;6432500;167;;;;;;;;;;;;;;
0.152757;6435000;172;;;;;;;;;;;;;;
0.155257;6437500;173;;;;;;;;;;;;;;
0.157757;6440000;300;;;;;;;;;;;;;;
0.160257;6442500;198;6443165;138.235;-449.873;909.623;551.251;-106.266;26.281;6442731;189.292;126.172;976.755;1682.757;-172.568;-323.5
0.162757;6445000;168;;;;;;;;;;;;;;
0.165257;6447500;135;;;;;;;;;;;;;;
0.167757;6450000;137;;;;;;;;;;;;;;
0.170257;6452500;150;;;;;;;;;;;;;;
0.172757;6455000;173;;;;;;;;;;;;;;
0.175257;6457500;155;;;;;;;;;;;;;;
0.177757;6460000;144;;;;;;;;;;;;;;
0.180257;6462500;155;;;;;;;;;;;;;;
0.182757;6465000;127;;;;;;;;;;;;;;
0.185257;6467500;142;;;;;;;;;;;;;;
0.187757;6470000;316;;;;;;;;;;;;;;
0.190257;6472500;231;6471999;138.131;-449.711;909.679;551.688;-101.39;28.904;6471559;189.27;126.183;976.821;1682.182;-170.94;-324.825
0.192757;6475000;197;;;;;;;;;;;;;;
0.195257;6477500;158;;;;;;;;;;;;;;
0.197757;6480000;170;;;;;;;;;;;;;;
0.200257;6482500;139;;;;;;;;;;;;;;
0.202757;6485000;126;;;;;;;;;;;;;;
0.205257;6487500;126;;;;;;;;;;;;;;
0.207757;6490000;137;;;;;;;;;;;;;;
0.210257;6492500;170;6493418;138.221;-449.802;909.695;554.729;-102.008;28.334;6492990;189.286;126.181;976.822;1682.073;-166.768;-325.209
0.212757;6495000;173;;;;;;;;;;;;;;
0.215257;6497500;7;;;;;;;;;;;;;;
0.217757;6500000;255;;;;;;;;;;;;;;
0.220257;6502500;172;;;;;;;;;;;;;;
0.222757;6505000;157;;;;;;;;;;;;;;
0.225257;6507500;127;;;;;;;;;;;;;;
0.227757;6510000;157;;;;;;;;;;;;;;
0.230257;6512500;143;;;;;;;;;;;;;;
0.232757;6515000;154;;;;;;;;;;;;;;
0.235257;6517500;173;6517825;138.27;-449.802;909.728;554.555;-103.47;31.293;6517389;189.283;126.088;976.885;1688.969;-166.742;-322.949
0.237757;6520000;331;;;;;;;;;;;;;;
0.240257;6522500;221;;;;;;;;;;;;;;
0.242757;6525000;152;;;;;;;;;;;;;;
0.245257;6527500;138;;;;;;;;;;;;;;
0.247757;6530000;157;;;;;;;;;;;;;;
0.250257;6532500;152;;;;;;;;;;;;;;
0.252757;6535000;154;;;;;;;;;;;;;;
0.255257;6537500;173;;;;;;;;;;;;;;
0.257757;6540000;169;;;;;;;;;;;;;;
0.260257;6542500;138;6543676;138.323;-449.876;909.656;550.015;-100.484;31.915;6543248;189.353;125.994;976.847;1688.521;-167.155;-324.739
0.262757;6545000;125;;;;;;;;;;;;;;
0.265257;6547500;152;;;;;;;;;;;;;;
0.267757;6550000;344;;;;;;;;;;;;;;
0.270257;6552500;221;;;;;;;;;;;;;;
0.272757;6555000;183;;;;;;;;;;;;;;
0.275257;6557500;159;;;;;;;;;;;;;;
0.277757;6560000;170;;;;;;;;;;;;;;
0.280257;6562500;137;;;;;;;;;;;;;;
0.282757;6565000;124;;;;;;;;;;;;;;
0.285257;6567500;125;;;;;;;;;;;;;;
0.287757;6570000;137;;;;;;;;;;;;;;
0.290257;6572500;168;;;;;;;;6573538;189.316;126.117;976.841;1686.344;-168.422;-326.439
0.292757;6575000;171;6573970;138.227;-449.836;909.618;545.264;-102.023;30.32;;;;;;;
0.295257;6577500;267;;;;;;;;;;;;;;
0.297757;6580000;277;;;;;;;;;;;;;;
0.300257;6582500;183;;;;;;;;;;;;;;
0.302757;6585000;157;;;;;;;;;;;;;;
0.305257;6587500;135;;;;;;;;;;;;;;
0.307757;6590000;156;;;;;;;;;;;;;;
0.310257;6592500;139;;;;;;;;;;;;;;
0.312757;6595000;155;;;;;;;;;;;;;;
0.315257;6597500;172;;;;;;;;;;;;;;
0.317757;6600000;363;;;;;;;;;;;;;;
0.320257;6602500;219;;;;;;;;;;;;;;
0.322757;6605000;153;6604257;138.275;-449.78;909.668;544.688;-105.234;28.366;6603828;189.25;126.119;976.799;1684.277;-167.001;-327.617
0.325257;6607500;136;;;;;;;;;;;;;;
0.327757;6610000;139;;;;;;;;;;;;;;
0.330257;6612500;143;;;;;;;;;;;;;;
0.332757;6615000;173;;;;;;;;;;;;;;
0.335257;6617500;155;;;;;;;;;;;;;;
0.337757;6620000;142;;;;;;;;;;;;;;
0.340257;6622500;136;;;;;;;;;;;;;;
0.342757;6625000;311;;;;;;;;;;;;;;
0.345257;6627500;215;;;;;;;;;;;;;;
0.347757;6630000;173;;;;;;;;;;;;;;
0.350257;6632500;171;6633085;138.334;-449.776;909.776;541.079;-106.535;29.135;6632653;189.145;126.071;976.753;1688.438;-166.526;-327.424
0.352757;6635000;156;;;;;;;;;;;;;;
0.355257;6637500;171;;;;;;;;;;;;;;
0.357757;6640000;169;;;;;;;;;;;;;;
0.360257;6642500;154;;;;;;;;;;;;;;
0.362757;6645000;143;;;;;;;;;;;;;;
0.365257;6647500;126;;;;;;;;;;;;;;
0.367757;6650000;379;;;;;;;;;;;;;;
0.370257;6652500;236;;;;;;;;;;;;;;
0.372757;6655000;186;6654513;138.396;-449.802;909.775;535.462;-106.895;30.304;6654085;189.051;126.008;976.703;1689.329;-169.137;-328.99
0.375257;6657500;185;;;;;;;;;;;;;;
0.377757;6660000;151;;;;;;;;;;;;;;
0.380257;6662500;156;;;;;;;;;;;;;;
0.382757;6665000;126;;;;;;;;;;;;;;
0.385257;6667500;124;;;;;;;;;;;;;;
0.387757;6670000;155;;;;;;;;;;;;;;
0.390257;6672500;152;;;;;;;;;;;;;;
0.392757;6675000;174;;;;;;;;;;;;;;
0.395257;6677500;173;;;;;;;;;;;;;;
0.397757;6680000;235;;;;;;;;;;;;;;
0.400257;6682500;263;;;;;;;;;;;;;;
0.402757;6685000;160;6684633;138.497;-449.821;909.743;531.002;-107.676;31.851;6684201;189.06;126.052;976.65;1691.487;-171.18;-326.103
0.405257;6687500;138;;;;;;;;;;;;;;
0.407757;6690000;137;;;;;;;;;;;;;;
0.410257;6692500;143;;;;;;;;;;;;;;
0.412757;6695000;171;;;;;;;;;;;;;;
0.415257;6697500;154;;;;;;;;;;;;;;
0.417757;6700000;149;;;;;;;;;;;;;;
0.420257;6702500;154;;;;;;;;;;;;;;
0.422757;6705000;125;;;;;;;;;;;;;;
0.425257;6707500;141;;;;;;;;;;;;;;
0.427757;6710000;366;;;;;;;;;;;;;;
0.430257;6712500;285;6713458;138.453;-449.79;909.75;530.264;-110.167;36.821;6713029;189.147;126.069;976.751;1693.976;-170.496;-325.548
0.432757;6715000;198;;;;;;;;;;;;;;
0.435257;6717500;186;;;;;;;;;;;;;;
0.437757;6720000;153;;;;;;;;;;;;;;
0.440257;6722500;139;;;;;;;;;;;;;;
0.442757;6725000;153;;;;;;;;;;;;;;
0.445257;6727500;134;;;;;;;;;;;;;;
0.447757;6730000;153;;;;;;;;;;;;;;
0.450257;6732500;142;;;;;;;;;;;;;;
0.452757;6735000;154;6734891;138.381;-449.657;909.707;527.376;-112.534;37.605;6734459;189.218;126.042;976.744;1694.589;-169.409;-323.271
0.455257;6737500;173;;;;;;;;;;;;;;
0.457757;6740000;341;;;;;;;;;;;;;;
0.460257;6742500;222;;;;;;;;;;;;;;
0.462757;6745000;155;;;;;;;;;;;;;;
0.465257;6747500;137;;;;;;;;;;;;;;
0.467757;6750000;157;;;;;;;;;;;;;;
0.470257;6752500;152;;;;;;;;;;;;;;
0.472757;6755000;155;;;;;;;;;;;;;;
0.475257;6757500;155;;;;;;;;;;;;;;
0.477757;6760000;0;;;;;;;;;;;;;;
0.480257;6762500;283;;;;;;;;;;;;;;
0.482757;6765000;189;6765178;138.342;-449.519;909.697;525.07;-115.219;39.662;6764749;189.23;125.956;976.792;1691.672;-170.126;-325.92
0.485257;6767500;139;;;;;;;;;;;;;;
0.487757;6770000;138;;;;;;;;;;;;;;
0.490257;6772500;151;;;;;;;;;;;;;;
0.492757;6775000;171;;;;;;;;;;;;;;
0.495257;6777500;153;;;;;;;;;;;;;;
0.497757;6780000;167;;;;;;;;;;;;;;
0.500257;6782500;137;;;;;;;;;;;;;;
0.502757;6785000;126;;;;;;;;;;;;;;
0.505257;6787500;144;;;;;;;;;;;;;;
0.507757;6790000;135;;;;;;;;;;;;;;
0.510257;6792500;284;;;;;;;;6793576;189.157;126.014;976.795;1693.714;-168.62;-325.811
0.512757;6795000;203;6794008;138.288;-449.491;909.737;526.816;-113.833;38.116;;;;;;;
0.515257;6797500;169;;;;;;;;;;;;;;
0.517757;6800000;153;;;;;;;;;;;;;;
0.520257;6802500;138;;;;;;;;;;;;;;
0.522757;6805000;141;;;;;;;;;;;;;;
0.525257;6807500;125;;;;;;;;;;;;;;
0.527757;6810000;154;;;;;;;;;;;;;;
0.530257;6812500;143;;;;;;;;;;;;;;
0.532757;6815000;153;6815436;138.321;-449.537;909.762;524.1;-110.329;41.898;6815007;189.288;126.064;976.762;1693.028;-170.251;-327.458
0.535257;6817500;152;;;;;;;;;;;;;;
0.537757;6820000;381;;;;;;;;;;;;;;
0.540257;6822500;236;;;;;;;;;;;;;;
0.542757;6825000;153;;;;;;;;;;;;;;
0.545257;6827500;156;;;;;;;;;;;;;;
0.547757;6830000;156;;;;;;;;;;;;;;
0.550257;6832500;168;;;;;;;;;;;;;;
0.552757;6835000;174;;;;;;;;;;;;;;
0.555257;6837500;154;;;;;;;;;;;;;;
0.557757;6840000;168;;;;;;;;;;;;;;
0.560257;6842500;303;;;;;;;;;;;;;;
0.562757;6845000;203;6845640;138.335;-449.539;909.78;517.583;-109.625;40.678;6845208;189.358;126.123;976.779;1693.252;-171.364;-327.273
0.565257;6847500;158;;;;;;;;;;;;;;
0.567757;6850000;158;;;;;;;;;;;;;;
0.570257;6852500;167;;;;;;;;;;;;;;
0.572757;6855000;173;;;;;;;;;;;;;;
0.575257;6857500;171;;;;;;;;;;;;;;
0.577757;6860000;170;;;;;;;;;;;;;;
0.580257;6862500;155;;;;;;;;;;;;;;
0.582757;6865000;142;;;;;;;;;;;;;;
0.585257;6867500;150;;;;;;;;;;;;;;
0.587757;6870000;154;;;;;;;;;;;;;;
0.590257;6872500;333;;;;;;;;;;;;;;
0.592757;6875000;219;6874464;138.311;-449.425;909.748;511.391;-111.582;39.519;6874037;189.315;126.112;976.801;1690.401;-171.983;-324.034
0.595257;6877500;173;;;;;;;;;;;;;;
0.597757;6880000;172;;;;;;;;;;;;;;
0.600257;6882500;140;;;;;;;;;;;;;;
0.602757;6885000;144;;;;;;;;;;;;;;
0.605257;6887500;126;;;;;;;;;;;;;;
0.607757;6890000;156;;;;;;;;;;;;;;
0.610257;6892500;142;;;;;;;;;;;;;;
0.612757;6895000;155;6895899;138.179;-449.34;909.828;511.634;-112.565;41.481;6895468;189.316;126.126;976.889;1685.944;-170.384;-324.02
0.615257;6897500;153;;;;;;;;;;;;;;
0.617757;6900000;29;;;;;;;;;;;;;;
0.620257;6902500;264;;;;;;;;;;;;;;
0.622757;6905000;185;;;;;;;;;;;;;;
0.625257;6907500;138;;;;;;;;;;;;;;
0.627757;6910000;137;;;;;;;;;;;;;;
0.630257;6912500;143;;;;;;;;;;;;;;
0.632757;6915000;172;;;;;;;;;;;;;;
0.635257;6917500;169;;;;;;;;;;;;;;
0.637757;6920000;141;6920295;138.144;-449.358;909.769;514.052;-113.499;42.907;6919866;189.269;126.127;976.863;1686.084;-168.427;-322.256
0.640257;6922500;316;;;;;;;;;;;;;;
0.642757;6925000;189;;;;;;;;;;;;;;
0.645257;6927500;152;;;;;;;;;;;;;;
0.647757;6930000;140;;;;;;;;;;;;;;
0.650257;6932500;142;;;;;;;;;;;;;;
0.652757;6935000;154;;;;;;;;;;;;;;
0.655257;6937500;152;;;;;;;;;;;;;;
0.657757;6940000;167;;;;;;;;;;;;;;
0.660257;6942500;154;;;;;;;;;;;;;;
0.662757;6945000;126;6946157;138.191;-449.387;909.823;512.85;-110.449;44.261;6945726;189.224;126.098;976.911;1689.717;-167.443;-322.769
0.665257;6947500;127;;;;;;;;;;;;;;
0.667757;6950000;136;;;;;;;;;;;;;;
0.670257;6952500;365;;;;;;;;;;;;;;
0.672757;6955000;252;;;;;;;;;;;;;;
0.675257;6957500;183;;;;;;;;;;;;;;
0.677757;6960000;154;;;;;;;;;;;;;;
0.680257;6962500;140;;;;;;;;;;;;;;
0.682757;6965000;153;;;;;;;;;;;;;;
0.685257;6967500;136;;;;;;;;;;;;;;
0.687757;6970000;140;;;;;;;;;;;;;;
0.690257;6972500;144;;;;;;;;;;;;;;
0.692757;6975000;171;;;;;;;;6976015;189.242;126.002;976.847;1687.482;-169.134;-321.943
0.695257;6977500;153;6976444;138.101;-449.457;909.753;511.707;-107.989;45.548;;;;;;;
0.697757;6980000;344;;;;;;;;;;;;;;
0.700257;6982500;264;;;;;;;;;;;;;;
0.702757;6985000;187;;;;;;;;;;;;;;
0.705257;6987500;157;;;;;;;;;;;;;;
0.707757;6990000;137;;;;;;;;;;;;;;
0.710257;6992500;168;;;;;;;;;;;;;;
0.712757;6995000;153;;;;;;;;;;;;;;
0.715257;6997500;152;;;;;;;;;;;;;;
0.717757;7000000;168;;;;;;;;;;;;;;
0.720257;7002500;350;;;;;;;;;;;;;;
0.722757;7005000;208;;;;;;;;;;;;;;
0.725257;7007500;153;7006736;138.126;-449.469;909.692;505.809;-110.027;47.208;7006305;189.332;126.022;976.805;1684.92;-168.552;-324.22
0.727757;7010000;140;;;;;;;;;;;;;;
0.730257;7012500;169;;;;;;;;;;;;;;
0.732757;7015000;154;;;;;;;;;;;;;;
0.735257;7017500;154;;;;;;;;;;;;;;
0.737757;7020000;168;;;;;;;;;;;;;;
0.740257;7022500;138;;;;;;;;;;;;;;
0.742757;7025000;143;;;;;;;;;;;;;;
0.745257;7027500;312;;;;;;;;;;;;;;
0.747757;7030000;222;;;;;;;;;;;;;;
0.750257;7032500;189;;;;;;;;;;;;;;
0.752757;7035000;186;7035568;138.204;-449.455;909.713;503.706;-112.838;43.536;7035131;189.302;126.034;976.862;1685.549;-169.312;-324.197
0.755257;7037500;184;;;;;;;;;;;;;;
0.757757;7040000;153;;;;;;;;;;;;;;
0.760257;7042500;140;;;;;;;;;;;;;;
0.762757;7045000;127;;;;;;;;;;;;;;
0.765257;7047500;128;;;;;;;;;;;;;;
0.767757;7050000;156;;;;;;;;;;;;;;
0.770257;7052500;408;;;;;;;;;;;;;;
0.772757;7055000;270;;;;;;;;;;;;;;
0.775257;7057500;189;;;;;;;;;;;;;;
0.777757;7060000;184;;;;;;;;;;;;;;
0.780257;7062500;140;;;;;;;;;;;;;;
0.782757;7065000;128;7065851;138.199;-449.516;909.752;501.709;-112.447;43.984;7065421;189.237;126.046;976.709;1683.521;-172.221;-322.862
0.785257;7067500;153;;;;;;;;;;;;;;
0.787757;7070000;155;;;;;;;;;;;;;;
0.790257;7072500;144;;;;;;;;;;;;;;
0.792757;7075000;154;;;;;;;;;;;;;;
0.795257;7077500;155;;;;;;;;;;;;;;
0.797757;7080000;169;;;;;;;;;;;;;;
0.800257;7082500;108;;;;;;;;;;;;;;
0.802757;7085000;235;;;;;;;;;;;;;;
0.805257;7087500;158;7087287;138.194;-449.464;909.74;500.686;-113.387;43.535;7086852;189.2;125.96;976.637;1684.22;-175.423;-324.656
0.807757;7090000;151;;;;;;;;;;;;;;
0.810257;7092500;172;;;;;;;;;;;;;;
0.812757;7095000;182;;;;;;;;;;;;;;
0.815257;7097500;155;;;;;;;;;;;;;;
0.817757;7100000;153;;;;;;;;;;;;;;
0.820257;7102500;138;;;;;;;;;;;;;;
0.822757;7105000;152;;;;;;;;;;;;;;
0.825257;7107500;136;;;;;;;;;;;;;;
0.827757;7110000;138;;;;;;;;;;;;;;
0.830257;7112500;366;;;;;;;;;;;;;;
0.832757;7115000;269;7116110;138.056;-449.481;909.716;499.714;-115.592;41.795;7115679;189.165;125.987;976.691;1684.009;-174.964;-328.111
0.835257;7117500;201;;;;;;;;;;;;;;
0.837757;7120000;185;;;;;;;;;;;;;;
0.840257;7122500;142;;;;;;;;;;;;;;
0.842757;7125000;128;;;;;;;;;;;;;;
0.845257;7127500;127;;;;;;;;;;;;;;
0.847757;7130000;156;;;;;;;;;;;;;;
0.850257;7132500;169;;;;;;;;;;;;;;
0.852757;7135000;154;;;;;;;;;;;;;;
0.855257;7137500;155;;;;;;;;;;;;;;
0.857757;7140000;152;;;;;;;;;;;;;;
0.860257;7142500;347;;;;;;;;;;;;;;
0.862757;7145000;200;;;;;;;;7145969;189.161;125.91;976.723;1684.684;-172.341;-327.456
0.865257;7147500;154;7146404;137.93;-449.541;909.748;497.478;-115.938;41.893;;;;;;;
0.867757;7150000;141;;;;;;;;;;;;;;
0.870257;7152500;169;;;;;;;;;;;;;;
0.872757;7155000;155;;;;;;;;;;;;;;
0.875257;7157500;156;;;;;;;;;;;;;;
0.877757;7160000;169;;;;;;;;;;;;;;
0.880257;7162500;158;;;;;;;;;;;;;;
0.882757;7165000;153;;;;;;;;;;;;;;
0.885257;7167500;134;7167830;137.945;-449.432;909.706;494.917;-115.391;41.986;7167400;189.231;125.849;976.718;1683.575;-172.911;-327.27
0.887757;7170000;139;;;;;;;;;;;;;;
0.890257;7172500;363;;;;;;;;;;;;;;
0.892757;7175000;264;;;;;;;;;;;;;;
0.895257;7177500;205;;;;;;;;;;;;;;
0.897757;7180000;157;;;;;;;;;;;;;;
0.900257;7182500;159;;;;;;;;;;;;;;
0.902757;7185000;152;;;;;;;;;;;;;;
0.905257;7187500;126;;;;;;;;;;;;;;
0.907757;7190000;157;;;;;;;;;;;;;;
0.910257;7192500;150;;;;;;;;;;;;;;
0.912757;7195000;298;;;;;;;;7196227;189.225;125.858;976.7;1681.646;-173.891;-325.344
0.915257;7197500;222;7196662;137.941;-449.439;909.641;496.858;-115.746;39.012;;;;;;;
0.917757;7200000;186;;;;;;;;;;;;;;
0.920257;7202500;159;;;;;;;;;;;;;;
0.922757;7205000;136;;;;;;;;;;;;;;
0.925257;7207500;153;;;;;;;;;;;;;;
0.927757;7210000;139;;;;;;;;;;;;;;
0.930257;7212500;144;;;;;;;;;;;;;;
0.932757;7215000;173;;;;;;;;;;;;;;
0.935257;7217500;155;;;;;;;;;;;;;;
0.937757;7220000;169;7219572;137.973;-449.421;909.732;494.766;-116.959;37.936;7219141;189.054;125.768;976.708;1675.001;-173.946;-324.39
0.940257;7222500;394;;;;;;;;;;;;;;
0.942757;7225000;237;;;;;;;;;;;;;;
0.945257;7227500;174;;;;;;;;;;;;;;
0.947757;7230000;142;;;;;;;;;;;;;;
0.950257;7232500;152;;;;;;;;;;;;;;
0.952757;7235000;175;;;;;;;;;;;;;;
0.955257;7237500;173;;;;;;;;;;;;;;
0.957757;7240000;151;;;;;;;;;;;;;;
0.960257;7242500;138;;;;;;;;;;;;;;
0.962757;7245000;134;;;;;;;;;;;;;;
0.965257;7247500;128;7248209;138.047;-449.435;909.636;500.652;-115.486;38.664;7247773;189.16;125.726;976.666;1668.688;-171.811;-325.67
0.967757;7250000;156;;;;;;;;;;;;;;
0.970257;7252500;266;;;;;;;;;;;;;;
0.972757;7255000;263;;;;;;;;;;;;;;
0.975257;7257500;217;;;;;;;;;;;;;;
0.977757;7260000;184;;;;;;;;;;;;;;
0.980257;7262500;142;;;;;;;;;;;;;;
0.982757;7265000;128;;;;;;;;;;;;;;
0.985257;7267500;125;;;;;;;;;;;;;;
0.987757;7270000;157;;;;;;;;;;;;;;
0.990257;7272500;170;;;;;;;;;;;;;;
0.992757;7275000;330;;;;;;;;;;;;;;
0.995257;7277500;219;7277031;138.05;-449.442;909.532;498.807;-114.087;38.044;7276601;189.078;125.65;976.73;1667.504;-172.408;-323.387
0.997757;7280000;171;;;;;;;;;;;;;;
1.000257;7282500;169;;;;;;;;;;;;;;
1.002757;7285000;136;;;;;;;;;;;;;;
1.005257;7287500;136;;;;;;;;;;;;;;
1.007757;7290000;138;;;;;;;;;;;;;;
1.010257;7292500;153;;;;;;;;;;;;;;
1.012757;7295000;175;;;;;;;;;;;;;;
1.015257;7297500;156;;;;;;;;;;;;;;
1.017757;7300000;170;;;;;;;;;;;;;;
1.020257;7302500;327;;;;;;;;;;;;;;
1.022757;7305000;238;;;;;;;;;;;;;;
1.025257;7307500;187;7307326;138.107;-449.369;909.677;495.742;-112.32;40.954;7306890;189.115;125.632;976.706;1665.066;-171.225;-322.967
1.027757;7310000;172;;;;;;;;;;;;;;
1.030257;7312500;154;;;;;;;;;;;;;;
1.032757;7315000;157;;;;;;;;;;;;;;
1.035257;7317500;153;;;;;;;;;;;;;;
1.037757;7320000;154;;;;;;;;;;;;;;
1.040257;7322500;156;;;;;;;;;;;;;;
1.042757;7325000;0;;;;;;;;;;;;;;
1.045257;7327500;284;;;;;;;;;;;;;;
1.047757;7330000;204;;;;;;;;;;;;;;
1.050257;7332500;168;;;;;;;;;;;;;;
1.052757;7335000;183;;;;;;;;;;;;;;
1.055257;7337500;156;7337611;138.113;-449.379;909.699;494.142;-111.954;40.656;7337178;188.98;125.749;976.848;1668.438;-171.852;-325.631
1.057757;7340000;171;;;;;;;;;;;;;;
1.060257;7342500;158;;;;;;;;;;;;;;
1.062757;7345000;128;;;;;;;;;;;;;;
1.065257;7347500;155;;;;;;;;;;;;;;
1.067757;7350000;139;;;;;;;;;;;;;;
1.070257;7352500;152;;;;;;;;;;;;;;
1.072757;7355000;376;;;;;;;;;;;;;;
1.075257;7357500;252;;;;;;;;;;;;;;
1.077757;7360000;200;;;;;;;;;;;;;;
1.080257;7362500;160;;;;;;;;;;;;;;
1.082757;7365000;136;;;;;;;;;;;;;;
1.085257;7367500;154;7367903;138.094;-449.376;909.604;493.06;-111.169;42.561;7367468;189.115;125.757;976.836;1669.016;-170.697;-325.975
1.087757;7370000;138;;;;;;;;;;;;;;
1.090257;7372500;153;;;;;;;;;;;;;;
1.092757;7375000;175;;;;;;;;;;;;;;
1.095257;7377500;156;;;;;;;;;;;;;;
1.097757;7380000;171;;;;;;;;;;;;;;
1.100257;7382500;303;;;;;;;;;;;;;;
1.102757;7385000;280;;;;;;;;;;;;;;
1.105257;7387500;173;;;;;;;;;;;;;;
1.107757;7390000;154;;;;;;;;;;;;;;
1.110257;7392500;173;;;;;;;;;;;;;;
1.112757;7395000;156;;;;;;;;;;;;;;
1.115257;7397500;157;7398189;138.132;-449.343;909.557;489.845;-112.61;41.308;7397757;189.102;125.777;976.867;1669.128;-171.349;-324.114
1.117757;7400000;151;;;;;;;;;;;;;;
1.120257;7402500;156;;;;;;;;;;;;;;
1.122757;7405000;152;;;;;;;;;;;;;;
1.125257;7407500;135;;;;;;;;;;;;;;
1.127757;7410000;158;;;;;;;;;;;;;;
1.130257;7412500;154;;;;;;;;;;;;;;
1.132757;7415000;302;;;;;;;;;;;;;;
1.135257;7417500;218;;;;;;;;;;;;;;
1.137757;7420000;169;;;;;;;;;;;;;;
1.140257;7422500;141;;;;;;;;;;;;;;
1.142757;7425000;153;;;;;;;;;;;;;;
1.145257;7427500;153;7427020;138.1;-449.306;909.512;488.977;-113.542;38.805;7426584;188.992;125.759;976.964;1667.046;-171.532;-323.658
1.147757;7430000;139;;;;;;;;;;;;;;
1.150257;7432500;151;;;;;;;;;;;;;;
1.152757;7435000;155;;;;;;;;;;;;;;
1.155257;7437500;155;;;;;;;;;;;;;;
1.157757;7440000;151;;;;;;;;;;;;;;
1.160257;7442500;138;;;;;;;;;;;;;;
1.162757;7445000;296;;;;;;;;;;;;;;
1.165257;7447500;204;7448447;138.075;-449.331;909.445;489.028;-112.678;40.802;7448017;188.9;125.802;976.916;1668.569;-169.518;-325.85
1.167757;7450000;155;;;;;;;;;;;;;;
1.170257;7452500;173;;;;;;;;;;;;;;
1.172757;7455000;157;;;;;;;;;;;;;;
1.175257;7457500;156;;;;;;;;;;;;;;
1.177757;7460000;168;;;;;;;;;;;;;;
1.180257;7462500;156;;;;;;;;;;;;;;
1.182757;7465000;126;;;;;;;;;;;;;;
1.185257;7467500;127;;;;;;;;;;;;;;
1.187757;7470000;139;;;;;;;;;;;;;;
1.190257;7472500;153;;;;;;;;;;;;;;
1.192757;7475000;352;;;;;;;;;;;;;;
1.195257;7477500;223;7478740;138.211;-449.337;909.521;489.952;-112.294;40.075;7478304;188.903;125.808;976.937;1672.641;-168.479;-321.807
1.197757;7480000;173;;;;;;;;;;;;;;
1.200257;7482500;142;;;;;;;;;;;;;;
1.202757;7485000;153;;;;;;;;;;;;;;
1.205257;7487500;143;;;;;;;;;;;;;;
1.207757;7490000;138;;;;;;;;;;;;;;
1.210257;7492500;142;;;;;;;;;;;;;;
1.212757;7495000;174;;;;;;;;;;;;;;
1.215257;7497500;156;;;;;;;;;;;;;;
1.217757;7500000;152;;;;;;;;;;;;;;
1.220257;7502500;138;;;;;;;;;;;;;;
1.222757;7505000;359;;;;;;;;;;;;;;
1.225257;7507500;230;7507564;138.096;-449.343;909.521;489.954;-111.929;40.258;7507132;188.95;125.892;976.854;1674.759;-169.243;-321.905
1.227757;7510000;159;;;;;;;;;;;;;;
1.230257;7512500;174;;;;;;;;;;;;;;
1.232757;7515000;184;;;;;;;;;;;;;;
1.235257;7517500;156;;;;;;;;;;;;;;
1.237757;7520000;170;;;;;;;;;;;;;;
1.240257;7522500;138;;;;;;;;;;;;;;
1.242757;7525000;135;;;;;;;;;;;;;;
1.245257;7527500;152;;;;;;;;7528564;189.055;125.831;976.872;1669.333;-171.281;-320.684
1.247757;7530000;158;7528992;138.109;-449.378;909.648;492.582;-111.583;40.433;;;;;;;
1.250257;7532500;200;;;;;;;;;;;;;;
1.252757;7535000;284;;;;;;;;;;;;;;
1.255257;7537500;204;;;;;;;;;;;;;;
1.257757;7540000;186;;;;;;;;;;;;;;
1.260257;7542500;158;;;;;;;;;;;;;;
1.262757;7545000;153;;;;;;;;;;;;;;
1.265257;7547500;127;;;;;;;;;;;;;;
1.267757;7550000;158;;;;;;;;;;;;;;
1.270257;7552500;152;;;;;;;;;;;;;;
1.272757;7555000;392;;;;;;;;;;;;;;
1.275257;7557500;263;;;;;;;;;;;;;;
1.277757;7560000;174;7559283;138.102;-449.4;909.562;494.64;-110.378;40.161;7558852;189.021;125.896;976.975;1667.241;-170.154;-320.838
1.280257;7562500;160;;;;;;;;;;;;;;
1.282757;7565000;155;;;;;;;;;;;;;;
1.285257;7567500;153;;;;;;;;;;;;;;
1.287757;7570000;155;;;;;;;;;;;;;;
1.290257;7572500;151;;;;;;;;;;;;;;
1.292757;7575000;172;;;;;;;;;;;;;;
1.295257;7577500;174;;;;;;;;;;;;;;
1.297757;7580000;167;;;;;;;;;;;;;;
1.300257;7582500;136;;;;;;;;;;;;;;
1.302757;7585000;382;;;;;;;;;;;;;;
1.305257;7587500;248;7588117;138.151;-449.439;909.541;495.283;-109.235;43.841;7587680;189.0;126.055;976.951;1672.254;-169.959;-319.671
1.307757;7590000;169;;;;;;;;;;;;;;
1.310257;7592500;158;;;;;;;;;;;;;;
1.312757;7595000;157;;;;;;;;;;;;;;
1.315257;7597500;155;;;;;;;;;;;;;;
1.317757;7600000;160;;;;;;;;;;;;;;
1.320257;7602500;136;;;;;;;;;;;;;;
1.322757;7605000;124;;;;;;;;;;;;;;
1.325257;7607500;126;;;;;;;;;;;;;;
1.327757;7610000;138;7609542;138.143;-449.568;909.576;493.269;-110.335;44.711;7609112;189.127;126.09;976.946;1665.204;-170.211;-321.187
1.330257;7612500;168;;;;;;;;;;;;;;
1.332757;7615000;332;;;;;;;;;;;;;;
1.335257;7617500;218;;;;;;;;;;;;;;
1.337757;7620000;170;;;;;;;;;;;;;;
1.340257;7622500;142;;;;;;;;;;;;;;
1.342757;7625000;154;;;;;;;;;;;;;;
1.345257;7627500;128;;;;;;;;;;;;;;
1.347757;7630000;138;;;;;;;;;;;;;;
1.350257;7632500;152;;;;;;;;;;;;;;
1.352757;7635000;266;;;;;;;;;;;;;;
1.355257;7637500;281;;;;;;;;;;;;;;
1.357757;7640000;187;7639662;138.171;-449.562;909.567;491.793;-111.381;46.413;7639226;189.071;126.233;976.978;1664.194;-173.513;-319.128
1.360257;7642500;152;;;;;;;;;;;;;;
1.362757;7645000;136;;;;;;;;;;;;;;
1.365257;7647500;127;;;;;;;;;;;;;;
1.367757;7650000;154;;;;;;;;;;;;;;
1.370257;7652500;167;;;;;;;;;;;;;;
1.372757;7655000;154;;;;;;;;;;;;;;
1.375257;7657500;155;;;;;;;;;;;;;;
1.377757;7660000;143;;;;;;;;;;;;;;
1.380257;7662500;136;;;;;;;;;;;;;;
1.382757;7665000;304;;;;;;;;;;;;;;
1.385257;7667500;266;7668485;138.089;-449.544;909.521;492.141;-108.437;46.717;7668053;189.17;126.205;976.984;1665.859;-172.712;-320.234
1.387757;7670000;190;;;;;;;;;;;;;;
1.390257;7672500;182;;;;;;;;;;;;;;
1.392757;7675000;155;;;;;;;;;;;;;;
1.395257;7677500;153;;;;;;;;;;;;;;
1.397757;7680000;142;;;;;;;;;;;;;;
1.400257;7682500;154;;;;;;;;;;;;;;
1.402757;7685000;150;;;;;;;;;;;;;;
1.405257;7687500;124;;;;;;;;;;;;;;
1.407757;7690000;138;7689915;138.272;-449.551;909.612;492.909;-108.265;47.444;7689485;189.118;126.159;976.867;1668.316;-173.702;-320.41
1.410257;7692500;169;;;;;;;;;;;;;;
1.412757;7695000;347;;;;;;;;;;;;;;
1.415257;7697500;249;;;;;;;;;;;;;;
1.417757;7700000;171;;;;;;;;;;;;;;
1.420257;7702500;159;;;;;;;;;;;;;;
1.422757;7705000;151;;;;;;;;;;;;;;
1.425257;7707500;152;;;;;;;;;;;;;;
1.427757;7710000;155;;;;;;;;;;;;;;
1.430257;7712500;142;;;;;;;;;;;;;;
1.432757;7715000;0;7714313;138.282;-449.509;909.662;493.201;-108.539;47.259;7713882;189.153;126.14;976.909;1669.338;-175.079;-320.139
1.435257;7717500;299;;;;;;;;;;;;;;
1.437757;7720000;198;;;;;;;;;;;;;;
1.440257;7722500;171;;;;;;;;;;;;;;
1.442757;7725000;137;;;;;;;;;;;;;;
1.445257;7727500;154;;;;;;;;;;;;;;
1.447757;7730000;156;;;;;;;;;;;;;;
1.450257;7732500;144;;;;;;;;;;;;;;
1.452757;7735000;172;;;;;;;;;;;;;;
1.455257;7737500;154;;;;;;;;;;;;;;
1.457757;7740000;143;7740173;138.188;-449.659;909.703;489.103;-107.487;46.209;7739743;189.187;126.104;976.931;1666.808;-173.763;-319.007
1.460257;7742500;154;;;;;;;;;;;;;;
1.462757;7745000;142;;;;;;;;;;;;;;
1.465257;7747500;288;;;;;;;;;;;;;;
1.467757;7750000;186;;;;;;;;;;;;;;
1.470257;7752500;185;;;;;;;;;;;;;;
1.472757;7755000;167;;;;;;;;;;;;;;
1.475257;7757500;181;;;;;;;;;;;;;;
1.477757;7760000;152;;;;;;;;;;;;;;
1.480257;7762500;136;;;;;;;;;;;;;;
1.482757;7765000;151;;;;;;;;;;;;;;
1.485257;7767500;151;;;;;;;;;;;;;;
1.487757;7770000;136;7770465;138.245;-449.593;909.748;490.898;-108.676;48.711;7770033;189.195;126.106;976.909;1671.843;-176.012;-322.307
1.490257;7772500;142;;;;;;;;;;;;;;
1.492757;7775000;375;;;;;;;;;;;;;;
1.495257;7777500;237;;;;;;;;;;;;;;
1.497757;7780000;200;;;;;;;;;;;;;;
1.500257;7782500;141;;;;;;;;;;;;;;
1.502757;7785000;127;;;;;;;;;;;;;;
1.505257;7787500;127;;;;;;;;;;;;;;
1.507757;7790000;156;;;;;;;;;;;;;;
1.510257;7792500;143;;;;;;;;;;;;;;
1.512757;7795000;153;;;;;;;;;;;;;;
1.515257;7797500;300;;;;;;;;;;;;;;
1.517757;7800000;203;7800758;138.25;-449.635;909.724;491.728;-108.054;50.65;7800321;189.251;126.2;976.833;1672.251;-176.399;-321.942
1.520257;7802500;173;;;;;;;;;;;;;;
1.522757;7805000;155;;;;;;;;;;;;;;
1.525257;7807500;126;;;;;;;;;;;;;;
1.527757;7810000;137;;;;;;;;;;;;;;
1.530257;7812500;142;;;;;;;;;;;;;;
1.532757;7815000;173;;;;;;;;;;;;;;
1.535257;7817500;153;;;;;;;;;;;;;;
1.537757;7820000;320;;;;;;;;;;;;;;
1.540257;7822500;251;;;;;;;;;;;;;;
1.542757;7825000;170;;;;;;;;;;;;;;
1.545257;7827500;158;;;;;;;;;;;;;;
1.547757;7830000;138;7829580;138.304;-449.65;909.774;490.767;-110.964;49.868;7829149;189.317;126.197;976.919;1670.451;-176.766;-323.345
1.550257;7832500;152;;;;;;;;;;;;;;
1.552757;7835000;153;;;;;;;;;;;;;;
1.555257;7837500;154;;;;;;;;;;;;;;
1.557757;7840000;169;;;;;;;;;;;;;;
1.560257;7842500;154;;;;;;;;;;;;;;
1.562757;7845000;143;;;;;;;;;;;;;;
1.565257;7847500;300;;;;;;;;;;;;;;
1.567757;7850000;219;7850834;138.33;-449.634;909.786;493.791;-113.728;52.625;7850404;189.27;126.244;976.88;1670.491;-177.116;-322.49
1.570257;7852500;170;;;;;;;;;;;;;;
1.572757;7855000;159;;;;;;;;;;;;;;
1.575257;7857500;172;;;;;;;;;;;;;;
1.577757;7860000;152;;;;;;;;;;;;;;
1.580257;7862500;156;;;;;;;;;;;;;;
1.582757;7865000;136;;;;;;;;;;;;;;
1.585257;7867500;153;;;;;;;;;;;;;;
1.587757;7870000;138;;;;;;;;;;;;;;
1.590257;7872500;168;;;;;;;;;;;;;;
1.592757;7875000;172;;;;;;;;;;;;;;
1.595257;7877500;333;;;;;;;;;;;;;;
1.597757;7880000;235;7881127;138.343;-449.576;909.717;496.226;-115.479;50.431;7880695;189.353;126.281;976.829;1667.029;-175.697;-322.99
1.600257;7882500;174;;;;;;;;;;;;;;
1.602757;7885000;153;;;;;;;;;;;;;;
1.605257;7887500;152;;;;;;;;;;;;;;
1.607757;7890000;136;;;;;;;;;;;;;;
1.610257;7892500;144;;;;;;;;;;;;;;
1.612757;7895000;153;;;;;;;;;;;;;;
1.615257;7897500;153;;;;;;;;;;;;;;
1.617757;7900000;169;;;;;;;;;;;;;;
1.620257;7902500;154;;;;;;;;;;;;;;
1.622757;7905000;152;;;;;;;;;;;;;;
1.625257;7907500;345;;;;;;;;;;;;;;
1.627757;7910000;236;7909960;138.404;-449.435;909.585;497.665;-115.393;50.534;7909522;189.279;126.263;976.843;1675.99;-173.037;-321.716
1.630257;7912500;198;;;;;;;;;;;;;;
1.632757;7915000;166;;;;;;;;;;;;;;
1.635257;7917500;175;;;;;;;;;;;;;;
1.637757;7920000;171;;;;;;;;;;;;;;
1.640257;7922500;139;;;;;;;;;;;;;;
1.642757;7925000;153;;;;;;;;;;;;;;
1.645257;7927500;135;;;;;;;;;;;;;;
1.647757;7930000;139;;;;;;;;7930954;189.203;126.257;976.898;1672.253;-172.698;-324.88
1.650257;7932500;152;7931383;138.469;-449.546;909.563;488.969;-116.186;50.633;;;;;;;
1.652757;7935000;0;;;;;;;;;;;;;;
1.655257;7937500;285;;;;;;;;;;;;;;
1.657757;7940000;199;;;;;;;;;;;;;;
1.660257;7942500;170;;;;;;;;;;;;;;
1.662757;7945000;154;;;;;;;;;;;;;;
1.665257;7947500;154;;;;;;;;;;;;;;
1.667757;7950000;138;;;;;;;;;;;;;;
1.670257;7952500;151;;;;;;;;;;;;;;
1.672757;7955000;174;;;;;;;;;;;;;;
1.675257;7957500;360;;;;;;;;;;;;;;
1.677757;7960000;248;;;;;;;;7961157;189.222;126.264;976.878;1668.265;-172.813;-326.573
1.680257;7962500;158;7961594;138.444;-449.498;909.584;484.646;-117.377;49.851;;;;;;;
1.682757;7965000;137;;;;;;;;;;;;;;
1.685257;7967500;127;;;;;;;;;;;;;;
1.687757;7970000;138;;;;;;;;;;;;;;
1.690257;7972500;152;;;;;;;;;;;;;;
1.692757;7975000;155;;;;;;;;;;;;;;
1.695257;7977500;154;;;;;;;;;;;;;;
1.697757;7980000;142;;;;;;;;;;;;;;
1.700257;7982500;137;;;;;;;;;;;;;;
1.702757;7985000;127;;;;;;;;;;;;;;
1.705257;7987500;376;;;;;;;;;;;;;;
1.707757;7990000;231;7990427;138.592;-449.422;909.599;485.789;-116.758;47.796;7989983;189.24;126.221;976.877;1673.227;-173.36;-328.62
1.710257;7992500;200;;;;;;;;;;;;;;
1.712757;7995000;167;;;;;;;;;;;;;;
1.715257;7997500;174;;;;;;;;;;;;;;
1.717757;8000000;144;;;;;;;;;;;;;;
1.720257;8002500;138;;;;;;;;;;;;;;
1.722757;8005000;152;;;;;;;;;;;;;;
1.725257;8007500;135;;;;;;;;;;;;;;
1.727757;8010000;138;;;;;;;;;;;;;;
1.730257;8012500;144;8011845;138.659;-449.448;909.71;487.312;-115.732;46.719;8011415;189.27;126.181;976.894;1677.065;-171.255;-331.001
1.732757;8015000;173;;;;;;;;;;;;;;
1.735257;8017500;303;;;;;;;;;;;;;;
1.737757;8020000;203;;;;;;;;;;;;;;
1.740257;8022500;155;;;;;;;;;;;;;;
1.742757;8025000;154;;;;;;;;;;;;;;
1.745257;8027500;152;;;;;;;;;;;;;;
1.747757;8030000;137;;;;;;;;;;;;;;
1.750257;8032500;169;;;;;;;;;;;;;;
1.752757;8035000;172;;;;;;;;;;;;;;
1.755257;8037500;60;;;;;;;;;;;;;;
1.757757;8040000;268;;;;;;;;;;;;;;
1.760257;8042500;170;8042140;138.534;-449.399;909.725;487.446;-115.633;47.883;8041703;189.384;126.198;976.843;1676.775;-173.192;-329.326
1.762757;8045000;139;;;;;;;;;;;;;;
1.765257;8047500;153;;;;;;;;;;;;;;
1.767757;8050000;138;;;;;;;;;;;;;;
1.770257;8052500;169;;;;;;;;;;;;;;
1.772757;8055000;155;;;;;;;;;;;;;;
1.775257;8057500;153;;;;;;;;;;;;;;
1.777757;8060000;142;;;;;;;;;;;;;;
1.780257;8062500;136;;;;;;;;;;;;;;
1.782757;8065000;152;;;;;;;;;;;;;;
1.785257;8067500;282;;;;;;;;;;;;;;
1.787757;8070000;268;8070968;138.567;-449.493;909.726;488.449;-115.977;46.363;8070530;189.43;126.256;976.813;1681.748;-174.595;-332.547
1.790257;8072500;185;;;;;;;;;;;;;;
1.792757;8075000;168;;;;;;;;;;;;;;
1.795257;8077500;175;;;;;;;;;;;;;;
1.797757;8080000;151;;;;;;;;;;;;;;
1.800257;8082500;155;;;;;;;;;;;;;;
1.802757;8085000;126;;;;;;;;;;;;;;
1.805257;8087500;127;;;;;;;;;;;;;;
1.807757;8090000;155;;;;;;;;;;;;;;
1.810257;8092500;144;8092392;138.416;-449.46;909.685;486.339;-114.99;44.483;8091962;189.42;126.3;976.882;1678.598;-174.615;-329.483
1.812757;8095000;155;;;;;;;;;;;;;;
1.815257;8097500;348;;;;;;;;;;;;;;
1.817757;8100000;216;;;;;;;;;;;;;;
1.820257;8102500;156;;;;;;;;;;;;;;
1.822757;8105000;138;;;;;;;;;;;;;;
1.825257;8107500;152;;;;;;;;;;;;;;
1.827757;8110000;157;;;;;;;;;;;;;;
1.830257;8112500;144;;;;;;;;;;;;;;
1.832757;8115000;154;;;;;;;;;;;;;;
1.835257;8117500;270;8116795;138.431;-449.49;909.743;487.834;-114.491;41.821;8116361;189.471;126.414;976.911;1683.043;-173.322;-327.446
1.837757;8120000;283;;;;;;;;;;;;;;
1.840257;8122500;191;;;;;;;;;;;;;;
1.842757;8125000;139;;;;;;;;;;;;;;
1.845257;8127500;135;;;;;;;;;;;;;;
1.847757;8130000;139;;;;;;;;;;;;;;
1.850257;8132500;169;;;;;;;;;;;;;;
1.852757;8135000;172;;;;;;;;;;;;;;
1.855257;8137500;173;;;;;;;;;;;;;;
1.857757;8140000;142;;;;;;;;;;;;;;
1.860257;8142500;139;8142477;138.457;-449.433;909.762;484.005;-115.329;42.355;8142045;189.416;126.334;976.884;1678.516;-174.281;-327.699
1.862757;8145000;152;;;;;;;;;;;;;;
1.865257;8147500;133;;;;;;;;;;;;;;
1.867757;8150000;280;;;;;;;;;;;;;;
1.870257;8152500;200;;;;;;;;;;;;;;
1.872757;8155000;172;;;;;;;;;;;;;;
1.875257;8157500;184;;;;;;;;;;;;;;
1.877757;8160000;169;;;;;;;;;;;;;;
1.880257;8162500;138;;;;;;;;;;;;;;
1.882757;8165000;136;;;;;;;;;;;;;;
1.885257;8167500;127;;;;;;;;;;;;;;
1.887757;8170000;157;;;;;;;;;;;;;;
1.890257;8172500;169;8172770;138.452;-449.434;909.786;483.867;-113.937;43.3;8172336;189.363;126.391;976.901;1673.34;-175.192;-327.939
1.892757;8175000;156;;;;;;;;;;;;;;
1.895257;8177500;373;;;;;;;;;;;;;;
1.897757;8180000;232;;;;;;;;;;;;;;
1.900257;8182500;185;;;;;;;;;;;;;;
1.902757;8185000;136;;;;;;;;;;;;;;
1.905257;8187500;136;;;;;;;;;;;;;;
1.907757;8190000;156;;;;;;;;;;;;;;
1.910257;8192500;167;;;;;;;;;;;;;;
1.912757;8195000;155;;;;;;;;;;;;;;
1.915257;8197500;174;;;;;;;;;;;;;;
1.917757;8200000;313;;;;;;;;;;;;;;
1.920257;8202500;207;8203059;138.465;-449.349;909.876;482.861;-112.615;42.01;8202626;189.375;126.275;977.014;1674.986;-173.432;-328.167
1.922757;8205000;169;;;;;;;;;;;;;;
1.925257;8207500;155;;;;;;;;;;;;;;
1.927757;8210000;158;;;;;;;;;;;;;;
1.930257;8212500;171;;;;;;;;;;;;;;
1.932757;8215000;157;;;;;;;;;;;;;;
1.935257;8217500;172;;;;;;;;;;;;;;
1.937757;8220000;167;;;;;;;;;;;;;;
1.940257;8222500;0;;;;;;;;;;;;;;
1.942757;8225000;267;;;;;;;;;;;;;;
1.945257;8227500;188;;;;;;;;;;;;;;
1.947757;8230000;172;;;;;;;;;;;;;;
1.950257;8232500;154;8231885;138.404;-449.47;909.851;486.281;-111.797;40.784;8231452;189.294;126.397;976.939;1672.174;-171.76;-326.196
1.952757;8235000;155;;;;;;;;;;;;;;
1.955257;8237500;156;;;;;;;;;;;;;;
1.957757;8240000;171;;;;;;;;;;;;;;
1.960257;8242500;155;;;;;;;;;;;;;;
1.962757;8245000;127;;;;;;;;;;;;;;
1.965257;8247500;135;;;;;;;;;;;;;;
1.967757;8250000;316;;;;;;;;;;;;;;
1.970257;8252500;206;8253316;139.92;-449.957;910.816;576.154;-34.02;13.808;8252884;189.882;110.006;976.721;3250.628;-760.797;733.551
1.972757;8255000;200;;;;;;;;;;;;;;
1.975257;8257500;165;;;;;;;;;;;;;;
1.977757;8260000;153;;;;;;;;;;;;;;
1.980257;8262500;157;;;;;;;;;;;;;;
1.982757;8265000;127;;;;;;;;;;;;;;
1.985257;8267500;153;;;;;;;;;;;;;;
1.987757;8270000;138;;;;;;;;;;;;;;
1.990257;8272500;144;;;;;;;;;;;;;;
1.992757;8275000;156;;;;;;;;;;;;;;
1.995257;8277500;154;;;;;;;;;;;;;;
1.997757;8280000;315;;;;;;;;;;;;;;
2.000257;8282500;200;8283260;135.681;-449.358;909.427;903.909;10.119;-69.57;8282826;189.599;117.92;979.436;6197.847;-2614.07;2414.061
2.002757;8285000;142;;;;;;;;;;;;;;
2.005257;8287500;136;;;;;;;;;;;;;;
2.007757;8290000;156;;;;;;;;;;;;;;
2.010257;8292500;142;;;;;;;;;;;;;;
2.012757;8295000;152;;;;;;;;;;;;;;
2.015257;8297500;170;;;;;;;;;;;;;;
2.017757;8300000;140;;;;;;;;;;;;;;
2.020257;8302500;137;;;;;;;;;;;;;;
2.022757;8305000;126;;;;;;;;;;;;;;
2.025257;8307500;126;;;;;;;;;;;;;;
2.027757;8310000;349;;;;;;;;;;;;;;
2.030257;8312500;248;8312093;136.016;-448.649;907.296;1234.964;-188.575;-101.529;8311652;189.592;124.12;979.307;6913.017;-4469.179;3398.921
2.032757;8315000;202;;;;;;;;;;;;;;
2.035257;8317500;168;;;;;;;;;;;;;;
2.037757;8320000;154;;;;;;;;;;;;;;
2.040257;8322500;157;;;;;;;;;;;;;;
2.042757;8325000;153;;;;;;;;;;;;;;
2.045257;8327500;137;;;;;;;;;;;;;;
2.047757;8330000;140;;;;;;;;;;;;;;
2.050257;8332500;152;;;;;;;;8333431;192.605;131.09;977.861;7052.553;-5608.095;3211.912
2.052757;8335000;154;8333857;135.571;-448.304;906.571;1382.34;-298.146;-105.203;;;;;;;
2.055257;8337500;0;;;;;;;;;;;;;;
2.057757;8340000;267;;;;;;;;;;;;;;
2.060257;8342500;183;;;;;;;;;;;;;;
2.062757;8345000;141;;;;;;;;;;;;;;
2.065257;8347500;155;;;;;;;;;;;;;;
2.067757;8350000;138;;;;;;;;;;;;;;
2.070257;8352500;169;;;;;;;;;;;;;;
2.072757;8355000;153;;;;;;;;;;;;;;
2.075257;8357500;155;;;;;;;;;;;;;;
2.077757;8360000;376;;;;;;;;;;;;;;
2.080257;8362500;216;;;;;;;;;;;;;;
2.082757;8365000;157;8364334;135.051;-447.91;906.23;1716.598;-344.489;32.62;8363895;194.224;136.675;977.878;6940.55;-6078.002;3381.629
2.085257;8367500;156;;;;;;;;;;;;;;
2.087757;8370000;156;;;;;;;;;;;;;;
2.090257;8372500;144;;;;;;;;;;;;;;
2.092757;8375000;173;;;;;;;;;;;;;;
2.095257;8377500;172;;;;;;;;;;;;;;
2.097757;8380000;168;;;;;;;;;;;;;;
2.100257;8382500;154;;;;;;;;;;;;;;
2.102757;8385000;153;;;;;;;;;;;;;;
2.105257;8387500;153;;;;;;;;;;;;;;
2.107757;8390000;347;;;;;;;;;;;;;;
2.110257;8392500;248;8393150;138.504;-446.59;906.291;1325.831;-535.952;572.614;8392722;199.799;142.913;974.044;6099.147;-6595.727;3254.11
2.112757;8395000;202;;;;;;;;;;;;;;
2.115257;8397500;168;;;;;;;;;;;;;;
2.117757;8400000;170;;;;;;;;;;;;;;
2.120257;8402500;155;;;;;;;;;;;;;;
2.122757;8405000;126;;;;;;;;;;;;;;
2.125257;8407500;152;;;;;;;;;;;;;;
2.127757;8410000;138;;;;;;;;;;;;;;
2.130257;8412500;144;;;;;;;;;;;;;;
2.132757;8415000;155;8414853;140.357;-447.081;906.415;988.727;-438.717;657.296;8414413;202.277;145.027;968.366;5763.565;-6288.253;3067.342
2.135257;8417500;0;;;;;;;;;;;;;;
2.137757;8420000;296;;;;;;;;;;;;;;
2.140257;8422500;183;;;;;;;;;;;;;;
2.142757;8425000;159;;;;;;;;;;;;;;
2.145257;8427500;135;;;;;;;;;;;;;;
2.147757;8430000;156;;;;;;;;;;;;;;
2.150257;8432500;170;;;;;;;;;;;;;;
2.152757;8435000;154;;;;;;;;;;;;;;
2.155257;8437500;155;;;;;;;;;;;;;;
2.157757;8440000;410;;;;;;;;;;;;;;
2.160257;8442500;251;;;;;;;;;;;;;;
2.162757;8445000;183;8445310;140.025;-448.151;906.027;1138.353;-425.531;601.243;8444875;203.058;143.284;967.234;5513.012;-5782.215;2782.725
2.165257;8447500;159;;;;;;;;;;;;;;
2.167757;8450000;159;;;;;;;;;;;;;;
2.170257;8452500;152;;;;;;;;;;;;;;
2.172757;8455000;155;;;;;;;;;;;;;;
2.175257;8457500;155;;;;;;;;;;;;;;
2.177757;8460000;144;;;;;;;;;;;;;;
2.180257;8462500;157;;;;;;;;;;;;;;
2.182757;8465000;127;;;;;;;;;;;;;;
2.185257;8467500;135;;;;;;;;;;;;;;
2.187757;8470000;0;;;;;;;;;;;;;;
2.190257;8472500;270;;;;;;;;;;;;;;
2.192757;8475000;203;8474396;140.374;-447.264;906.146;1385.06;-462.004;504.244;8473964;204.8;146.203;966.3;5542.736;-5636.604;2660.651
2.195257;8477500;173;;;;;;;;;;;;;;
2.197757;8480000;153;;;;;;;;;;;;;;
2.200257;8482500;141;;;;;;;;;;;;;;
2.202757;8485000;135;;;;;;;;;;;;;;
2.205257;8487500;153;;;;;;;;;;;;;;
2.207757;8490000;139;;;;;;;;;;;;;;
2.210257;8492500;152;;;;;;;;;;;;;;
2.212757;8495000;157;8496088;141.572;-448.551;901.52;1527.12;-331.717;467.219;8495655;209.212;148.202;965.596;5396.849;-5572.649;2549.056
2.215257;8497500;156;;;;;;;;;;;;;;
2.217757;8500000;362;;;;;;;;;;;;;;
2.220257;8502500;233;;;;;;;;;;;;;;
2.222757;8505000;153;;;;;;;;;;;;;;
2.225257;8507500;139;;;;;;;;;;;;;;
2.227757;8510000;141;;;;;;;;;;;;;;
2.230257;8512500;170;;;;;;;;;;;;;;
2.232757;8515000;157;;;;;;;;;;;;;;
2.235257;8517500;174;;;;;;;;;;;;;;
2.237757;8520000;151;8520746;139.434;-448.626;906.995;2908.951;-251.693;484.546;8520313;211.922;149.942;965.012;5151.507;-5066.517;2280.728
2.240257;8522500;283;;;;;;;;;;;;;;
2.242757;8525000;219;;;;;;;;;;;;;;
2.245257;8527500;152;;;;;;;;;;;;;;
2.247757;8530000;167;;;;;;;;;;;;;;
2.250257;8532500;152;;;;;;;;;;;;;;
2.252757;8535000;173;;;;;;;;;;;;;;
2.255257;8537500;156;;;;;;;;;;;;;;
2.257757;8540000;170;;;;;;;;;;;;;;
2.260257;8542500;136;;;;;;;;;;;;;;
2.262757;8545000;135;;;;;;;;;;;;;;
2.265257;8547500;152;8546867;139.947;-445.544;908.645;3867.316;-493.734;316.381;8546434;213.507;149.405;964.353;4870.307;-4764.191;2086.629
2.267757;8550000;157;;;;;;;;;;;;;;
2.270257;8552500;345;;;;;;;;;;;;;;
2.272757;8555000;248;;;;;;;;;;;;;;
2.275257;8557500;201;;;;;;;;;;;;;;
2.277757;8560000;175;;;;;;;;;;;;;;
2.280257;8562500;139;;;;;;;;;;;;;;
2.282757;8565000;153;;;;;;;;;;;;;;
2.285257;8567500;137;;;;;;;;;;;;;;
2.287757;8570000;139;;;;;;;;;;;;;;
2.290257;8572500;171;;;;;;;;;;;;;;
2.292757;8575000;155;;;;;;;;;;;;;;
2.295257;8577500;155;8577416;140.697;-443.153;909.189;3572.45;-507.984;323.312;8576983;215.849;151.084;964.155;4768.104;-4570.607;1964.36
2.297757;8580000;363;;;;;;;;;;;;;;
2.300257;8582500;256;;;;;;;;;;;;;;
2.302757;8585000;189;;;;;;;;;;;;;;
2.305257;8587500;141;;;;;;;;;;;;;;
2.307757;8590000;156;;;;;;;;;;;;;;
2.310257;8592500;152;;;;;;;;;;;;;;
2.312757;8595000;154;;;;;;;;;;;;;;
2.315257;8597500;174;;;;;;;;;;;;;;
2.317757;8600000;151;;;;;;;;;;;;;;
2.320257;8602500;365;;;;;;;;;;;;;;
2.322757;8605000;237;;;;;;;;;;;;;;
2.325257;8607500;164;8607967;139.085;-447.908;906.765;4152.89;-657.148;88.396;8607533;217.861;151.155;963.704;4608.011;-4379.702;1863.08
2.327757;8610000;168;;;;;;;;;;;;;;
2.330257;8612500;153;;;;;;;;;;;;;;
2.332757;8615000;155;;;;;;;;;;;;;;
2.335257;8617500;172;;;;;;;;;;;;;;
2.337757;8620000;143;;;;;;;;;;;;;;
2.340257;8622500;137;;;;;;;;;;;;;;
2.342757;8625000;126;;;;;;;;;;;;;;
2.345257;8627500;363;;;;;;;;;;;;;;
2.347757;8630000;217;;;;;;;;;;;;;;
2.350257;8632500;199;;;;;;;;;;;;;;
2.352757;8635000;159;;;;;;;;;;;;;;
2.355257;8637500;155;8636974;137.907;-444.819;910.214;6378.183;-1018.915;-237.586;8636533;218.973;152.985;963.544;4454.61;-4122.654;1741.051
2.357757;8640000;169;;;;;;;;;;;;;;
2.360257;8642500;138;;;;;;;;;;;;;;
2.362757;8645000;126;;;;;;;;;;;;;;
2.365257;8647500;134;;;;;;;;;;;;;;
2.367757;8650000;139;;;;;;;;;;;;;;
2.370257;8652500;272;;;;;;;;;;;;;;
2.372757;8655000;280;;;;;;;;;;;;;;
2.375257;8657500;201;;;;;;;;;;;;;;
2.377757;8660000;167;;;;;;;;;;;;;;
2.380257;8662500;139;;;;;;;;;;;;;;
2.382757;8665000;151;;;;;;;;;;;;;;
2.385257;8667500;135;8667510;139.162;-436.742;911.747;6763.211;-1096.157;-306.207;8667084;220.785;153.004;963.301;4412.567;-4235.458;1719.623
2.387757;8670000;157;;;;;;;;;;;;;;
2.390257;8672500;144;;;;;;;;;;;;;;
2.392757;8675000;155;;;;;;;;;;;;;;
2.395257;8677500;153;;;;;;;;;;;;;;
2.397757;8680000;142;;;;;;;;;;;;;;
2.400257;8682500;156;;;;;;;;;;;;;;
2.402757;8685000;283;;;;;;;;;;;;;;
2.405257;8687500;184;;;;;;;;;;;;;;
2.407757;8690000;171;;;;;;;;;;;;;;
2.410257;8692500;172;;;;;;;;;;;;;;
2.412757;8695000;174;;;;;;;;;;;;;;
2.415257;8697500;155;8698247;138.615;-435.572;913.001;6108.738;-355.349;-114.584;8697807;222.263;154.022;964.363;4307.439;-4489.623;1762.704
2.417757;8700000;143;;;;;;;;;;;;;;
2.420257;8702500;155;;;;;;;;;;;;;;
2.422757;8705000;127;;;;;;;;;;;;;;
2.425257;8707500;134;;;;;;;;;;;;;;
2.427757;8710000;139;;;;;;;;;;;;;;
2.430257;8712500;169;;;;;;;;;;;;;;
2.432757;8715000;333;;;;;;;;;;;;;;
2.435257;8717500;238;;;;;;;;;;;;;;
2.437757;8720000;190;;;;;;;;;;;;;;
2.440257;8722500;151;;;;;;;;;;;;;;
2.442757;8725000;152;;;;;;;;;;;;;;
2.445257;8727500;127;;;;;;;;8728443;225.662;154.714;964.292;4295.942;-4572.267;1713.069
2.447757;8730000;136;8728878;136.863;-435.223;912.979;6775.864;-187.957;81.458;;;;;;;
2.450257;8732500;151;;;;;;;;;;;;;;
2.452757;8735000;154;;;;;;;;;;;;;;
2.455257;8737500;173;;;;;;;;;;;;;;
2.457757;8740000;151;;;;;;;;;;;;;;
2.460257;8742500;0;;;;;;;;;;;;;;
2.462757;8745000;280;;;;;;;;;;;;;;
2.465257;8747500;190;;;;;;;;;;;;;;
2.467757;8750000;171;;;;;;;;;;;;;;
2.470257;8752500;153;;;;;;;;;;;;;;
2.472757;8755000;173;;;;;;;;;;;;;;
2.475257;8757500;171;;;;;;;;8758732;227.701;155.415;962.645;4233.395;-4830.153;1691.291
2.477757;8760000;168;8759172;136.522;-431.573;914.611;8201.508;-49.496;361.76;;;;;;;
2.480257;8762500;156;;;;;;;;;;;;;;
2.482757;8765000;152;;;;;;;;;;;;;;
2.485257;8767500;151;;;;;;;;;;;;;;
2.487757;8770000;155;;;;;;;;;;;;;;
2.490257;8772500;167;;;;;;;;;;;;;;
2.492757;8775000;330;;;;;;;;;;;;;;
2.495257;8777500;207;;;;;;;;;;;;;;
2.497757;8780000;185;;;;;;;;;;;;;;
2.500257;8782500;167;;;;;;;;;;;;;;
2.502757;8785000;125;;;;;;;;;;;;;;
2.505257;8787500;151;8787995;137.876;-425.427;916.674;9544.932;187.916;522.172;8787560;230.785;155.544;961.482;4157.35;-4897.521;1399.351
2.507757;8790000;138;;;;;;;;;;;;;;
2.510257;8792500;167;;;;;;;;;;;;;;
2.512757;8795000;172;;;;;;;;;;;;;;
2.515257;8797500;154;;;;;;;;;;;;;;
2.517757;8800000;142;;;;;;;;;;;;;;
2.520257;8802500;137;;;;;;;;;;;;;;
2.522757;8805000;362;;;;;;;;;;;;;;
2.525257;8807500;204;;;;;;;;;;;;;;
2.527757;8810000;158;8809597;137.949;-419.93;918.024;9881.872;582.77;805.813;8809165;232.166;153.879;960.866;4069.357;-4489.895;1101.446
2.530257;8812500;154;;;;;;;;;;;;;;
2.532757;8815000;156;;;;;;;;;;;;;;
2.535257;8817500;172;;;;;;;;;;;;;;
2.537757;8820000;143;;;;;;;;;;;;;;
2.540257;8822500;137;;;;;;;;;;;;;;
2.542757;8825000;126;;;;;;;;;;;;;;
2.545257;8827500;126;;;;;;;;;;;;;;
2.547757;8830000;156;;;;;;;;;;;;;;
2.550257;8832500;152;;;;;;;;;;;;;;
2.552757;8835000;8;;;;;;;;;;;;;;
2.555257;8837500;252;;;;;;;;;;;;;;
2.557757;8840000;184;8839887;137.45;-421.662;920.502;10071.591;390.444;1501.398;8839453;236.936;155.676;960.281;3828.702;-4105.712;687.624
2.560257;8842500;144;;;;;;;;;;;;;;
2.562757;8845000;137;;;;;;;;;;;;;;
2.565257;8847500;154;;;;;;;;;;;;;;
2.567757;8850000;139;;;;;;;;;;;;;;
2.570257;8852500;143;;;;;;;;;;;;;;
2.572757;8855000;171;;;;;;;;;;;;;;
2.575257;8857500;153;;;;;;;;;;;;;;
2.577757;8860000;143;;;;;;;;;;;;;;
2.580257;8862500;138;;;;;;;;;;;;;;
2.582757;8865000;0;;;;;;;;;;;;;;
2.585257;8867500;266;;;;;;;;8868541;240.809;158.043;957.297;3333.642;-4421.052;599.868
2.587757;8870000;201;8868981;138.959;-422.515;922.014;10973.698;-5.328;1605.703;;;;;;;
2.590257;8872500;159;;;;;;;;;;;;;;
2.592757;8875000;157;;;;;;;;;;;;;;
2.595257;8877500;155;;;;;;;;;;;;;;
2.597757;8880000;168;;;;;;;;;;;;;;
2.600257;8882500;156;;;;;;;;;;;;;;
2.602757;8885000;150;;;;;;;;;;;;;;
2.605257;8887500;134;;;;;;;;;;;;;;
2.607757;8890000;157;8890486;138.715;-412.881;926.165;12269.951;-141.124;1787.042;8890059;242.225;159.736;954.993;3416.772;-5249.562;362.062
2.610257;8892500;143;;;;;;;;;;;;;;
2.612757;8895000;360;;;;;;;;;;;;;;
2.615257;8897500;221;;;;;;;;;;;;;;
2.617757;8900000;188;;;;;;;;;;;;;;
2.620257;8902500;158;;;;;;;;;;;;;;
2.622757;8905000;134;;;;;;;;;;;;;;
2.625257;8907500;152;;;;;;;;;;;;;;
2.627757;8910000;155;;;;;;;;;;;;;;
2.630257;8912500;142;;;;;;;;;;;;;;
2.632757;8915000;0;8915244;138.154;-407.085;929.938;12408.516;197.12;1758.94;8914804;242.881;162.558;955.897;3467.308;-5150.271;-20.041
2.635257;8917500;285;;;;;;;;;;;;;;
2.637757;8920000;190;;;;;;;;;;;;;;
2.640257;8922500;154;;;;;;;;;;;;;;
2.642757;8925000;137;;;;;;;;;;;;;;
2.645257;8927500;154;;;;;;;;;;;;;;
2.647757;8930000;139;;;;;;;;;;;;;;
2.650257;8932500;170;;;;;;;;;;;;;;
2.652757;8935000;173;;;;;;;;;;;;;;
2.655257;8937500;172;;;;;;;;;;;;;;
2.657757;8940000;168;;;;;;;;8940925;246.402;166.405;956.335;3087.88;-4671.382;-229.914
2.660257;8942500;137;8941353;138.596;-401.151;931.979;12383.965;1.764;1723.056;;;;;;;
2.662757;8945000;127;;;;;;;;;;;;;;
2.665257;8947500;301;;;;;;;;;;;;;;
2.667757;8950000;190;;;;;;;;;;;;;;
2.670257;8952500;188;;;;;;;;;;;;;;
2.672757;8955000;183;;;;;;;;;;;;;;
2.675257;8957500;173;;;;;;;;;;;;;;
2.677757;8960000;168;;;;;;;;;;;;;;
2.680257;8962500;137;;;;;;;;;;;;;;
2.682757;8965000;150;;;;;;;;;;;;;;
2.685257;8967500;127;;;;;;;;;;;;;;
2.687757;8970000;157;;;;;;;;;;;;;;
2.690257;8972500;170;8971828;138.236;-396.215;931.551;12449.892;-103.762;1657.028;8971388;247.66;165.771;957.251;1887.861;-3450.813;-452.919
2.692757;8975000;21;;;;;;;;;;;;;;
2.695257;8977500;255;;;;;;;;;;;;;;
2.697757;8980000;184;;;;;;;;;;;;;;
2.700257;8982500;142;;;;;;;;;;;;;;
2.702757;8985000;134;;;;;;;;;;;;;;
2.705257;8987500;151;;;;;;;;;;;;;;
2.707757;8990000;138;;;;;;;;;;;;;;
2.710257;8992500;143;;;;;;;;;;;;;;
2.712757;8995000;172;;;;;;;;;;;;;;
2.715257;8997500;334;;;;;;;;;;;;;;
2.717757;9000000;217;;;;;;;;;;;;;;
2.720257;9002500;159;9002540;138.138;-389.489;933.56;12125.771;-128.324;1441.177;9002112;246.52;161.642;956.102;828.781;-2425.147;-805.648
2.722757;9005000;136;;;;;;;;;;;;;;
2.725257;9007500;153;;;;;;;;;;;;;;
2.727757;9010000;140;;;;;;;;;;;;;;
2.730257;9012500;171;;;;;;;;;;;;;;
2.732757;9015000;154;;;;;;;;;;;;;;
2.735257;9017500;153;;;;;;;;;;;;;;
2.737757;9020000;144;;;;;;;;;;;;;;
2.740257;9022500;312;;;;;;;;;;;;;;
2.742757;9025000;185;;;;;;;;;;;;;;
2.745257;9027500;143;;;;;;;;;;;;;;
2.747757;9030000;139;;;;;;;;;;;;;;
2.750257;9032500;169;9031725;137.88;-383.416;935.401;11246.92;-119.72;1245.743;9031285;245.692;159.3;955.023;649.092;-2199.765;-1242.24
2.752757;9035000;153;;;;;;;;;;;;;;
2.755257;9037500;153;;;;;;;;;;;;;;
2.757757;9040000;151;;;;;;;;;;;;;;
2.760257;9042500;136;;;;;;;;;;;;;;
2.762757;9045000;151;;;;;;;;;;;;;;
2.765257;9047500;392;;;;;;;;;;;;;;
2.767757;9050000;236;;;;;;;;;;;;;;
2.770257;9052500;183;9053577;138.184;-378.544;936.882;10242.699;60.391;1043.893;9053151;247.2;158.484;955.92;787.7;-2263.464;-1358.628
2.772757;9055000;168;;;;;;;;;;;;;;
2.775257;9057500;157;;;;;;;;;;;;;;
2.777757;9060000;168;;;;;;;;;;;;;;
2.780257;9062500;136;;;;;;;;;;;;;;
2.782757;9065000;142;;;;;;;;;;;;;;
2.785257;9067500;152;;;;;;;;;;;;;;
2.787757;9070000;140;;;;;;;;;;;;;;
2.790257;9072500;168;;;;;;;;;;;;;;
2.792757;9075000;173;;;;;;;;;;;;;;
2.795257;9077500;319;;;;;;;;;;;;;;
2.797757;9080000;282;;;;;;;;;;;;;;
2.800257;9082500;190;;;;;;;;9083701;247.424;157.996;955.515;870.815;-2144.166;-1330.947
2.802757;9085000;157;9084141;137.668;-374.488;939.594;9460.189;311.559;1020.573;;;;;;;
2.805257;9087500;125;;;;;;;;;;;;;;
2.807757;9090000;137;;;;;;;;;;;;;;
2.810257;9092500;168;;;;;;;;;;;;;;
2.812757;9095000;153;;;;;;;;;;;;;;
2.815257;9097500;171;;;;;;;;;;;;;;
2.817757;9100000;168;;;;;;;;;;;;;;
2.820257;9102500;136;;;;;;;;;;;;;;
2.822757;9105000;144;;;;;;;;;;;;;;
2.825257;9107500;135;;;;;;;;;;;;;;
2.827757;9110000;299;;;;;;;;;;;;;;
2.830257;9112500;205;9113043;136.384;-371.947;941.805;8268.367;157.731;967.795;9112615;247.491;157.862;955.563;973.836;-2242.583;-1347.962
2.832757;9115000;173;;;;;;;;;;;;;;
2.835257;9117500;184;;;;;;;;;;;;;;
2.837757;9120000;152;;;;;;;;;;;;;;
2.840257;9122500;138;;;;;;;;;;;;;;
2.842757;9125000;152;;;;;;;;;;;;;;
2.845257;9127500;127;;;;;;;;;;;;;;
2.847757;9130000;156;;;;;;;;;;;;;;
2.850257;9132500;153;;;;;;;;;;;;;;
2.852757;9135000;156;9134659;136.55;-369.466;941.239;7432.324;-149.406;994.217;9134219;248.377;158.118;956.554;1115.02;-2138.766;-1370.251
2.855257;9137500;254;;;;;;;;;;;;;;
2.857757;9140000;255;;;;;;;;;;;;;;
2.860257;9142500;172;;;;;;;;;;;;;;
2.862757;9145000;122;;;;;;;;;;;;;;
2.865257;9147500;153;;;;;;;;;;;;;;
2.867757;9150000;136;;;;;;;;;;;;;;
2.870257;9152500;168;;;;;;;;;;;;;;
2.872757;9155000;153;;;;;;;;;;;;;;
2.875257;9157500;152;;;;;;;;;;;;;;
2.877757;9160000;384;;;;;;;;;;;;;;
2.880257;9162500;239;;;;;;;;;;;;;;
2.882757;9165000;156;9165284;136.487;-367.481;942.325;6900.145;-177.81;999.632;9164856;249.257;157.868;956.74;960.394;-1894.89;-1376.551
2.885257;9167500;138;;;;;;;;;;;;;;
2.887757;9170000;140;;;;;;;;;;;;;;
2.890257;9172500;170;;;;;;;;;;;;;;
2.892757;9175000;155;;;;;;;;;;;;;;
2.895257;9177500;152;;;;;;;;;;;;;;
2.897757;9180000;141;;;;;;;;;;;;;;
2.900257;9182500;136;;;;;;;;;;;;;;
2.902757;9185000;151;;;;;;;;;;;;;;
2.905257;9187500;126;;;;;;;;;;;;;;
2.907757;9190000;9;;;;;;;;;;;;;;
2.910257;9192500;267;;;;;;;;;;;;;;
2.912757;9195000;200;9194384;136.037;-364.083;945.222;6485.138;-554.795;1367.025;9193944;250.232;157.52;956.568;692.749;-1608.958;-1419.286
2.915257;9197500;169;;;;;;;;;;;;;;
2.917757;9200000;152;;;;;;;;;;;;;;
2.920257;9202500;137;;;;;;;;;;;;;;
2.922757;9205000;124;;;;;;;;;;;;;;
2.925257;9207500;126;;;;;;;;;;;;;;
2.927757;9210000;154;;;;;;;;;;;;;;
2.930257;9212500;141;;;;;;;;;;;;;;
2.932757;9215000;153;9216149;134.353;-362.66;948.463;5777.631;-1327.68;2144.799;9215722;251.055;157.891;956.856;354.486;-1321.573;-1594.197
2.935257;9217500;144;;;;;;;;;;;;;;
2.937757;9220000;330;;;;;;;;;;;;;;
2.940257;9222500;204;;;;;;;;;;;;;;
2.942757;9225000;168;;;;;;;;;;;;;;
2.945257;9227500;136;;;;;;;;;;;;;;
2.947757;9230000;155;;;;;;;;;;;;;;
2.950257;9232500;170;;;;;;;;;;;;;;
2.952757;9235000;152;;;;;;;;;;;;;;
2.955257;9237500;170;;;;;;;;;;;;;;
2.957757;9240000;140;;;;;;;;;;;;;;
2.960257;9242500;267;;;;;;;;;;;;;;
2.962757;9245000;190;;;;;;;;;;;;;;
2.965257;9247500;141;9246884;135.712;-364.467;950.499;5399.062;-3100.109;3686.059;9246444;251.032;157.469;957.771;-175.55;-628.119;-1755.987
2.967757;9250000;155;;;;;;;;;;;;;;
2.970257;9252500;168;;;;;;;;;;;;;;
2.972757;9255000;153;;;;;;;;;;;;;;
2.975257;9257500;174;;;;;;;;;;;;;;
2.977757;9260000;142;;;;;;;;;;;;;;
2.980257;9262500;136;;;;;;;;;;;;;;
2.982757;9265000;152;;;;;;;;;;;;;;
2.985257;9267500;126;;;;;;;;;;;;;;
2.987757;9270000;157;;;;;;;;;;;;;;
2.990257;9272500;318;;;;;;;;;;;;;;
2.992757;9275000;240;9276132;137.509;-362.476;950.572;5228.858;-5336.916;5714.631;9275706;250.363;155.006;957.993;-637.96;577.974;-1774.938
2.995257;9277500;199;;;;;;;;;;;;;;
2.997757;9280000;154;;;;;;;;;;;;;;
3.000257;9282500;156;;;;;;;;;;;;;;
3.002757;9285000;125;;;;;;;;;;;;;;
3.005257;9287500;135;;;;;;;;;;;;;;
3.007757;9290000;157;;;;;;;;;;;;;;
3.010257;9292500;167;;;;;;;;;;;;;;
3.012757;9295000;172;;;;;;;;;;;;;;
3.015257;9297500;155;;;;;;;;;;;;;;
3.017757;9300000;285;;;;;;;;;;;;;;
3.020257;9302500;279;;;;;;;;;;;;;;
3.022757;9305000;188;;;;;;;;;;;;;;
3.025257;9307500;158;9306783;140.009;-360.743;951.038;6081.728;-7091.32;7668.024;9306343;249.734;153.301;959.119;-988.0;1519.451;-1732.128
3.027757;9310000;140;;;;;;;;;;;;;;
3.030257;9312500;170;;;;;;;;;;;;;;
3.032757;9315000;154;;;;;;;;;;;;;;
3.035257;9317500;153;;;;;;;;;;;;;;
3.037757;9320000;143;;;;;;;;;;;;;;
3.040257;9322500;376;;;;;;;;;;;;;;
3.042757;9325000;239;;;;;;;;;;;;;;
3.045257;9327500;156;;;;;;;;;;;;;;
3.047757;9330000;151;;;;;;;;;;;;;;
3.050257;9332500;154;;;;;;;;;;;;;;
3.052757;9335000;156;;;;;;;;;;;;;;
3.055257;9337500;173;9337327;145.252;-352.936;953.622;7346.517;-8553.691;9096.748;9336892;246.153;151.974;959.713;-1097.412;2279.541;-1652.522
3.057757;9340000;142;;;;;;;;;;;;;;
3.060257;9342500;136;;;;;;;;;;;;;;
3.062757;9345000;125;;;;;;;;;;;;;;
3.065257;9347500;126;;;;;;;;;;;;;;
3.067757;9350000;138;;;;;;;;;;;;;;
3.070257;9352500;286;;;;;;;;;;;;;;
3.072757;9355000;280;;;;;;;;;;;;;;
3.075257;9357500;200;;;;;;;;;;;;;;
3.077757;9360000;156;;;;;;;;;;;;;;
3.080257;9362500;156;;;;;;;;;;;;;;
3.082757;9365000;126;;;;;;;;;;;;;;
3.085257;9367500;152;9368142;148.06;-351.283;954.406;7604.378;-9173.382;9738.723;9367702;243.904;150.786;960.588;-1142.292;2618.376;-1574.708
3.087757;9370000;139;;;;;;;;;;;;;;
3.090257;9372500;149;;;;;;;;;;;;;;
3.092757;9375000;155;;;;;;;;;;;;;;
3.095257;9377500;153;;;;;;;;;;;;;;
3.097757;9380000;144;;;;;;;;;;;;;;
3.100257;9382500;368;;;;;;;;;;;;;;
3.102757;9385000;219;;;;;;;;;;;;;;
3.105257;9387500;175;;;;;;;;;;;;;;
3.107757;9390000;169;;;;;;;;;;;;;;
3.110257;9392500;172;;;;;;;;;;;;;;
3.112757;9395000;157;;;;;;;;;;;;;;
3.115257;9397500;155;;;;;;;;9398512;241.713;148.865;960.731;-1202.865;2769.207;-1490.723
3.117757;9400000;169;9398947;150.838;-349.384;956.175;7028.597;-9958.963;9848.536;;;;;;;
3.120257;9402500;136;;;;;;;;;;;;;;
3.122757;9405000;151;;;;;;;;;;;;;;
3.125257;9407500;128;;;;;;;;;;;;;;
3.127757;9410000;156;;;;;;;;;;;;;;
3.130257;9412500;0;;;;;;;;;;;;;;
3.132757;9415000;296;;;;;;;;;;;;;;
3.135257;9417500;218;;;;;;;;;;;;;;
3.137757;9420000;183;;;;;;;;;;;;;;
3.140257;9422500;156;;;;;;;;;;;;;;
3.142757;9425000;126;;;;;;;;;;;;;;
3.145257;9427500;153;9428213;154.593;-349.098;955.824;6783.479;-10481.702;9568.297;9427773;239.058;147.455;961.006;-1124.346;2669.247;-1404.812
3.147757;9430000;155;;;;;;;;;;;;;;
3.150257;9432500;168;;;;;;;;;;;;;;
3.152757;9435000;173;;;;;;;;;;;;;;
3.155257;9437500;155;;;;;;;;;;;;;;
3.157757;9440000;169;;;;;;;;;;;;;;
3.160257;9442500;137;;;;;;;;;;;;;;
3.162757;9445000;278;;;;;;;;;;;;;;
3.165257;9447500;199;;;;;;;;;;;;;;
3.167757;9450000;152;9450240;159.295;-350.382;955.906;7774.743;-10731.555;9762.319;9449813;237.804;145.865;961.402;-1024.817;2487.659;-1398.446
3.170257;9452500;152;;;;;;;;;;;;;;
3.172757;9455000;173;;;;;;;;;;;;;;
3.175257;9457500;154;;;;;;;;;;;;;;
3.177757;9460000;167;;;;;;;;;;;;;;
3.180257;9462500;135;;;;;;;;;;;;;;
3.182757;9465000;142;;;;;;;;;;;;;;
3.185257;9467500;151;;;;;;;;;;;;;;
3.187757;9470000;155;;;;;;;;;;;;;;
3.190257;9472500;168;;;;;;;;;;;;;;
3.192757;9475000;346;;;;;;;;;;;;;;
3.195257;9477500;232;;;;;;;;;;;;;;
3.197757;9480000;188;9481149;163.427;-348.955;957.941;9189.381;-10353.352;11015.453;9480709;235.967;145.416;962.492;-960.888;2209.714;-1483.399
3.200257;9482500;140;;;;;;;;;;;;;;
3.202757;9485000;152;;;;;;;;;;;;;;
3.205257;9487500;126;;;;;;;;;;;;;;
3.207757;9490000;154;;;;;;;;;;;;;;
3.210257;9492500;142;;;;;;;;;;;;;;
3.212757;9495000;169;;;;;;;;;;;;;;
3.215257;9497500;152;;;;;;;;;;;;;;
3.217757;9500000;141;;;;;;;;;;;;;;
3.220257;9502500;153;;;;;;;;;;;;;;
3.222757;9505000;20;;;;;;;;;;;;;;
3.225257;9507500;234;;;;;;;;;;;;;;
3.227757;9510000;171;9510579;168.511;-344.744;959.436;11537.35;-9403.871;12859.118;9510144;234.929;144.959;962.996;-857.719;1935.603;-1506.791
3.230257;9512500;159;;;;;;;;;;;;;;
3.232757;9515000;176;;;;;;;;;;;;;;
3.235257;9517500;174;;;;;;;;;;;;;;
3.237757;9520000;151;;;;;;;;;;;;;;
3.240257;9522500;136;;;;;;;;;;;;;;
3.242757;9525000;125;;;;;;;;;;;;;;
3.245257;9527500;153;;;;;;;;;;;;;;
3.247757;9530000;138;;;;;;;;;;;;;;
3.250257;9532500;151;9532615;171.7;-341.818;962.46;14112.67;-8335.178;14859.1;9532183;234.815;143.585;962.762;-730.833;1667.76;-1611.702
3.252757;9535000;359;;;;;;;;;;;;;;
3.255257;9537500;235;;;;;;;;;;;;;;
3.257757;9540000;191;;;;;;;;;;;;;;
3.260257;9542500;143;;;;;;;;;;;;;;
3.262757;9545000;127;;;;;;;;;;;;;;
3.265257;9547500;126;;;;;;;;;;;;;;
3.267757;9550000;136;;;;;;;;;;;;;;
3.270257;9552500;167;;;;;;;;;;;;;;
3.272757;9555000;154;;;;;;;;;;;;;;
3.275257;9557500;315;;;;;;;;;;;;;;
3.277757;9560000;205;;;;;;;;;;;;;;
3.280257;9562500;154;9563514;174.022;-336.244;967.358;16949.035;-7144.044;17522.52;9563080;232.761;144.934;964.046;-689.041;1951.435;-1620.804
3.282757;9565000;154;;;;;;;;;;;;;;
3.285257;9567500;153;;;;;;;;;;;;;;
3.287757;9570000;138;;;;;;;;;;;;;;
3.290257;9572500;143;;;;;;;;;;;;;;
3.292757;9575000;156;;;;;;;;;;;;;;
3.295257;9577500;157;;;;;;;;;;;;;;
3.297757;9580000;144;;;;;;;;;;;;;;
3.300257;9582500;156;;;;;;;;;;;;;;
3.302757;9585000;143;;;;;;;;;;;;;;
3.305257;9587500;394;;;;;;;;;;;;;;
3.307757;9590000;233;;;;;;;;;;;;;;
3.310257;9592500;201;9592948;173.549;-330.899;970.236;21579.082;-6266.217;20891.455;9592515;233.659;142.524;964.534;-746.902;2276.926;-1626.389
3.312757;9595000;168;;;;;;;;;;;;;;
3.315257;9597500;156;;;;;;;;;;;;;;
3.317757;9600000;169;;;;;;;;;;;;;;
3.320257;9602500;136;;;;;;;;;;;;;;
3.322757;9605000;143;;;;;;;;;;;;;;
3.325257;9607500;126;;;;;;;;;;;;;;
3.327757;9610000;139;;;;;;;;;;;;;;
3.330257;9612500;168;;;;;;;;;;;;;;
3.332757;9615000;155;9614987;174.882;-319.698;973.66;25907.627;-5268.656;24337.383;9614553;233.023;139.79;964.479;-715.244;2849.079;-1574.819
3.335257;9617500;361;;;;;;;;;;;;;;
3.337757;9620000;216;;;;;;;;;;;;;;
3.340257;9622500;153;;;;;;;;;;;;;;
3.342757;9625000;153;;;;;;;;;;;;;;
3.345257;9627500;125;;;;;;;;;;;;;;
3.347757;9630000;157;;;;;;;;;;;;;;
3.350257;9632500;142;;;;;;;;;;;;;;
3.352757;9635000;173;;;;;;;;;;;;;;
3.355257;9637500;171;;;;;;;;;;;;;;
3.357757;9640000;302;;;;;;;;;;;;;;
3.360257;9642500;207;;;;;;;;;;;;;;
3.362757;9645000;142;9645890;173.116;-306.873;974.35;29065.559;-4080.786;27605.326;9645449;235.487;136.698;963.365;-812.044;3446.0;-1506.578
3.365257;9647500;136;;;;;;;;;;;;;;
3.367757;9650000;156;;;;;;;;;;;;;;
3.370257;9652500;143;;;;;;;;;;;;;;
3.372757;9655000;173;;;;;;;;;;;;;;
3.375257;9657500;171;;;;;;;;;;;;;;
3.377757;9660000;141;;;;;;;;;;;;;;
3.380257;9662500;155;;;;;;;;;;;;;;
3.382757;9665000;128;;;;;;;;;;;;;;
3.385257;9667500;155;;;;;;;;;;;;;;
3.387757;9670000;382;;;;;;;;;;;;;;
3.390257;9672500;263;;;;;;;;;;;;;;
3.392757;9675000;189;9675311;171.622;-293.701;974.903;29444.094;-3112.434;30380.871;9674885;230.612;134.75;965.242;-781.505;4003.013;-1696.374
3.395257;9677500;167;;;;;;;;;;;;;;
3.397757;9680000;152;;;;;;;;;;;;;;
3.400257;9682500;156;;;;;;;;;;;;;;
3.402757;9685000;151;;;;;;;;;;;;;;
3.405257;9687500;134;;;;;;;;;;;;;;
3.407757;9690000;136;;;;;;;;;;;;;;
3.410257;9692500;168;;;;;;;;;;;;;;
3.412757;9695000;174;;;;;;;;;;;;;;
3.415257;9697500;173;;;;;;;;;;;;;;
3.417757;9700000;329;;;;;;;;;;;;;;
3.420257;9702500;202;;;;;;;;;;;;;;
3.422757;9705000;152;9706222;166.475;-280.138;972.072;27696.701;-3080.625;32937.141;9705782;228.268;133.234;966.597;-698.242;4004.112;-1937.493
3.425257;9707500;138;;;;;;;;;;;;;;
3.427757;9710000;138;;;;;;;;;;;;;;
3.430257;9712500;151;;;;;;;;;;;;;;
3.432757;9715000;154;;;;;;;;;;;;;;
3.435257;9717500;171;;;;;;;;;;;;;;
3.437757;9720000;140;;;;;;;;;;;;;;
3.440257;9722500;302;;;;;;;;;;;;;;
3.442757;9725000;174;;;;;;;;;;;;;;
3.445257;9727500;142;;;;;;;;;;;;;;
3.447757;9730000;140;;;;;;;;;;;;;;
3.450257;9732500;169;;;;;;;;;;;;;;
3.452757;9735000;172;;;;;;;;;;;;;;
3.455257;9737500;154;9737113;161.72;-269.633;971.268;25538.803;-4035.656;34880.844;9736678;224.504;132.532;967.775;-569.267;3990.281;-2079.056
3.457757;9740000;141;;;;;;;;;;;;;;
3.460257;9742500;153;;;;;;;;;;;;;;
3.462757;9745000;150;;;;;;;;;;;;;;
3.465257;9747500;151;;;;;;;;;;;;;;
3.467757;9750000;138;;;;;;;;;;;;;;
3.470257;9752500;381;;;;;;;;;;;;;;
3.472757;9755000;255;;;;;;;;;;;;;;
3.475257;9757500;202;;;;;;;;;;;;;;
3.477757;9760000;173;;;;;;;;;;;;;;
3.480257;9762500;156;;;;;;;;;;;;;;
3.482757;9765000;142;;;;;;;;;;;;;;
3.485257;9767500;126;9767841;160.435;-262.696;974.054;24998.611;-4536.936;36198.426;9767401;220.153;131.822;969.144;-467.304;3755.767;-2080.978
3.487757;9770000;157;;;;;;;;;;;;;;
3.490257;9772500;142;;;;;;;;;;;;;;
3.492757;9775000;155;;;;;;;;;;;;;;
3.495257;9777500;174;;;;;;;;;;;;;;
3.497757;9780000;170;;;;;;;;;;;;;;
3.500257;9782500;331;;;;;;;;;;;;;;
3.502757;9785000;207;;;;;;;;;;;;;;
3.505257;9787500;168;;;;;;;;;;;;;;
3.507757;9790000;158;;;;;;;;;;;;;;
3.510257;9792500;143;;;;;;;;;;;;;;
3.512757;9795000;156;;;;;;;;;;;;;;
3.515257;9797500;153;9798734;158.514;-255.186;975.213;24471.43;-3712.026;37590.566;9798298;219.558;131.282;969.743;-497.314;3532.542;-2016.742
3.517757;9800000;141;;;;;;;;;;;;;;
3.520257;9802500;152;;;;;;;;;;;;;;
3.522757;9805000;150;;;;;;;;;;;;;;
3.525257;9807500;144;;;;;;;;;;;;;;
3.527757;9810000;137;;;;;;;;;;;;;;
3.530257;9812500;407;;;;;;;;;;;;;;
3.532757;9815000;267;;;;;;;;;;;;;;
3.535257;9817500;186;;;;;;;;;;;;;;
3.537757;9820000;154;;;;;;;;;;;;;;
3.540257;9822500;156;;;;;;;;;;;;;;
3.542757;9825000;124;;;;;;;;;;;;;;
3.545257;9827500;144;9828173;155.486;-247.672;975.21;23624.107;-2983.05;39262.227;9827733;217.169;130.33;970.043;-570.886;3477.102;-2046.28
3.547757;9830000;136;;;;;;;;;;;;;;
3.550257;9832500;150;;;;;;;;;;;;;;
3.552757;9835000;154;;;;;;;;;;;;;;
3.555257;9837500;170;;;;;;;;;;;;;;
3.557757;9840000;142;;;;;;;;;;;;;;
3.560257;9842500;3;;;;;;;;;;;;;;
3.562757;9845000;282;;;;;;;;;;;;;;
3.565257;9847500;190;;;;;;;;;;;;;;
3.567757;9850000;152;9850200;154.031;-241.401;976.811;23709.027;-2490.897;40902.801;9849773;216.327;129.151;969.902;-623.716;3241.122;-2155.278
3.570257;9852500;151;;;;;;;;;;;;;;
3.572757;9855000;155;;;;;;;;;;;;;;
3.575257;9857500;172;;;;;;;;;;;;;;
3.577757;9860000;142;;;;;;;;;;;;;;
3.580257;9862500;128;;;;;;;;;;;;;;
3.582757;9865000;125;;;;;;;;;;;;;;
3.585257;9867500;125;;;;;;;;;;;;;;
3.587757;9870000;157;;;;;;;;;;;;;;
3.590257;9872500;170;;;;;;;;;;;;;;
3.592757;9875000;330;;;;;;;;;;;;;;
3.595257;9877500;220;;;;;;;;;;;;;;
3.597757;9880000;170;9881108;151.942;-232.125;979.686;24377.264;-2179.978;42753.598;9880669;214.728;127.592;970.609;-649.405;3338.503;-2278.952
3.600257;9882500;159;;;;;;;;;;;;;;
3.602757;9885000;136;;;;;;;;;;;;;;
3.605257;9887500;135;;;;;;;;;;;;;;
3.607757;9890000;140;;;;;;;;;;;;;;
3.610257;9892500;142;;;;;;;;;;;;;;
3.612757;9895000;173;;;;;;;;;;;;;;
3.615257;9897500;154;;;;;;;;;;;;;;
3.617757;9900000;140;;;;;;;;;;;;;;
3.620257;9902500;136;;;;;;;;;;;;;;
3.622757;9905000;377;;;;;;;;;;;;;;
3.625257;9907500;247;;;;;;;;;;;;;;
3.627757;9910000;168;9910539;148.206;-220.964;981.332;25142.463;-1764.729;44665.418;9910104;212.117;126.446;971.428;-763.935;3477.39;-2283.129
3.630257;9912500;156;;;;;;;;;;;;;;
3.632757;9915000;156;;;;;;;;;;;;;;
3.635257;9917500;152;;;;;;;;;;;;;;
3.637757;9920000;168;;;;;;;;;;;;;;
3.640257;9922500;138;;;;;;;;;;;;;;
3.642757;9925000;144;;;;;;;;;;;;;;
3.645257;9927500;128;;;;;;;;;;;;;;
3.647757;9930000;158;;;;;;;;;;;;;;
3.650257;9932500;152;9933184;144.627;-209.495;979.613;24765.152;-1605.18;46524.961;9932752;208.995;125.278;971.778;-824.176;3282.083;-2242.91
3.652757;9935000;366;;;;;;;;;;;;;;
3.655257;9937500;251;;;;;;;;;;;;;;
3.657757;9940000;190;;;;;;;;;;;;;;
3.660257;9942500;166;;;;;;;;;;;;;;
3.662757;9945000;128;;;;;;;;;;;;;;
3.665257;9947500;153;;;;;;;;;;;;;;
3.667757;9950000;139;;;;;;;;;;;;;;
3.670257;9952500;143;;;;;;;;;;;;;;
3.672757;9955000;173;;;;;;;;;;;;;;
3.675257;9957500;316;;;;;;;;;;;;;;
3.677757;9960000;232;;;;;;;;;;;;;;
3.680257;9962500;173;;;;;;;;;;;;;;
3.682757;9965000;153;9965211;140.159;-200.887;977.401;22930.145;-2546.483;48139.711;9964777;204.896;124.889;973.039;-954.905;2816.979;-2141.702
3.685257;9967500;151;;;;;;;;;;;;;;
3.687757;9970000;138;;;;;;;;;;;;;;
3.690257;9972500;149;;;;;;;;;;;;;;
3.692757;9975000;153;;;;;;;;;;;;;;
3.695257;9977500;155;;;;;;;;;;;;;;
3.697757;9980000;167;;;;;;;;;;;;;;
3.700257;9982500;137;;;;;;;;;;;;;;
3.702757;9985000;144;;;;;;;;;;;;;;
3.705257;9987500;393;;;;;;;;;;;;;;
3.707757;9990000;249;;;;;;;;;;;;;;
3.710257;9992500;202;;;;;;;;;;;;;;
3.712757;9995000;169;9995687;138.409;-194.807;980.204;20938.824;-4277.221;49650.977;9995254;203.844;123.902;973.187;-1134.222;2054.442;-1949.305
3.715257;9997500;157;;;;;;;;;;;;;;
3.717757;10000000;171;;;;;;;;;;;;;;
3.720257;10002500;139;;;;;;;;;;;;;;
3.722757;10005000;153;;;;;;;;;;;;;;
3.725257;10007500;127;;;;;;;;;;;;;;
3.727757;10010000;156;;;;;;;;;;;;;;
3.730257;10012500;168;;;;;;;;;;;;;;
3.732757;10015000;155;;;;;;;;;;;;;;
3.735257;10017500;336;;;;;;;;;;;;;;
3.737757;10020000;218;10019990;138.997;-189.343;986.1;20152.633;-5854.923;50819.801;10019557;201.826;123.234;973.797;-995.698;1193.533;-1789.277
3.740257;10022500;156;;;;;;;;;;;;;;
3.742757;10025000;155;;;;;;;;;;;;;;
3.745257;10027500;128;;;;;;;;;;;;;;
3.747757;10030000;138;;;;;;;;;;;;;;
3.750257;10032500;143;;;;;;;;;;;;;;
3.752757;10035000;174;;;;;;;;;;;;;;
3.755257;10037500;153;;;;;;;;;;;;;;
3.757757;10040000;336;;;;;;;;;;;;;;
3.760257;10042500;205;;;;;;;;;;;;;;
3.762757;10045000;153;;;;;;;;;;;;;;
3.765257;10047500;155;;;;;;;;;;;;;;
3.767757;10050000;155;10050618;137.623;-187.733;990.048;19397.875;-6739.052;51284.434;10050185;198.572;120.079;974.688;-985.726;-21.144;-1570.751
3.770257;10052500;169;;;;;;;;;;;;;;
3.772757;10055000;156;;;;;;;;;;;;;;
3.775257;10057500;152;;;;;;;;;;;;;;
3.777757;10060000;158;;;;;;;;;;;;;;
3.780257;10062500;135;;;;;;;;;;;;;;
3.782757;10065000;124;;;;;;;;;;;;;;
3.785257;10067500;126;;;;;;;;;;;;;;
3.787757;10070000;138;;;;;;;;;;;;;;
3.790257;10072500;319;;;;;;;;;;;;;;
3.792757;10075000;220;;;;;;;;;;;;;;
3.795257;10077500;176;;;;;;;;;;;;;;
3.797757;10080000;154;10081182;137.153;-183.318;991.084;18616.98;-6879.849;51901.711;10080749;199.172;118.693;975.034;-1120.627;-1147.087;-1320.713
3.800257;10082500;139;;;;;;;;;;;;;;
3.802757;10085000;142;;;;;;;;;;;;;;
3.805257;10087500;151;;;;;;;;;;;;;;
3.807757;10090000;136;;;;;;;;;;;;;;
3.810257;10092500;143;;;;;;;;;;;;;;
3.812757;10095000;154;;;;;;;;;;;;;;
3.815257;10097500;154;;;;;;;;;;;;;;
3.817757;10100000;168;;;;;;;;;;;;;;
3.820257;10102500;360;;;;;;;;;;;;;;
3.822757;10105000;220;;;;;;;;;;;;;;
3.825257;10107500;172;;;;;;;;;;;;;;
3.827757;10110000;152;;;;;;;;;;;;;;
3.830257;10112500;152;10113554;137.505;-178.513;989.244;17358.881;-7525.044;51800.375;10113121;201.261;117.26;974.753;-1395.346;-2416.67;-1087.99
3.832757;10115000;155;;;;;;;;;;;;;;
3.835257;10117500;171;;;;;;;;;;;;;;
3.837757;10120000;160;;;;;;;;;;;;;;
3.840257;10122500;134;;;;;;;;;;;;;;
3.842757;10125000;126;;;;;;;;;;;;;;
3.845257;10127500;287;;;;;;;;;;;;;;
3.847757;10130000;216;;;;;;;;;;;;;;
3.850257;10132500;186;;;;;;;;;;;;;;
3.852757;10135000;183;;;;;;;;;;;;;;
3.855257;10137500;174;;;;;;;;;;;;;;
3.857757;10140000;167;;;;;;;;;;;;;;
3.860257;10142500;154;;;;;;;;;;;;;;
3.862757;10145000;149;10145926;140.781;-176.804;991.791;15941.875;-7899.542;51648.543;10145493;204.075;115.978;974.254;-1460.766;-2972.649;-978.903
3.865257;10147500;125;;;;;;;;;;;;;;
3.867757;10150000;136;;;;;;;;;;;;;;
3.870257;10152500;167;;;;;;;;;;;;;;
3.872757;10155000;155;;;;;;;;;;;;;;
3.875257;10157500;365;;;;;;;;;;;;;;
3.877757;10160000;218;;;;;;;;;;;;;;
3.880257;10162500;155;;;;;;;;;;;;;;
3.882757;10165000;152;;;;;;;;;;;;;;
3.885257;10167500;153;;;;;;;;;;;;;;
3.887757;10170000;155;;;;;;;;;;;;;;
3.890257;10172500;152;;;;;;;;;;;;;;
3.892757;10175000;173;;;;;;;;;;;;;;
3.895257;10177500;170;10178212;143.776;-173.136;989.549;15573.969;-7910.127;51108.363;10177779;208.176;113.004;972.853;-1468.228;-3170.954;-932.145
3.897757;10180000;142;;;;;;;;;;;;;;
3.900257;10182500;154;;;;;;;;;;;;;;
3.902757;10185000;124;;;;;;;;;;;;;;
3.905257;10187500;398;;;;;;;;;;;;;;
3.907757;10190000;234;;;;;;;;;;;;;;
3.910257;10192500;176;;;;;;;;;;;;;;
3.912757;10195000;168;;;;;;;;;;;;;;
3.915257;10197500;156;;;;;;;;;;;;;;
3.917757;10200000;168;;;;;;;;;;;;;;
3.920257;10202500;137;;;;;;;;;;;;;;
3.922757;10205000;142;;;;;;;;;;;;;;
3.925257;10207500;125;;;;;;;;;;;;;;
3.927757;10210000;137;10210499;145.542;-168.213;988.433;14979.458;-8188.808;50368.57;10210065;208.515;111.874;973.297;-1191.816;-2878.531;-1077.6
3.930257;10212500;169;;;;;;;;;;;;;;
3.932757;10215000;154;;;;;;;;;;;;;;
3.935257;10217500;153;;;;;;;;;;;;;;
3.937757;10220000;365;;;;;;;;;;;;;;
3.940257;10222500;219;;;;;;;;;;;;;;
3.942757;10225000;173;;;;;;;;;;;;;;
3.945257;10227500;156;;;;;;;;;;;;;;
3.947757;10230000;139;;;;;;;;;;;;;;
3.950257;10232500;140;;;;;;;;;;;;;;
3.952757;10235000;154;;;;;;;;;;;;;;
3.955257;10237500;173;;;;;;;;;;;;;;
3.957757;10240000;168;;;;;;;;10240888;210.137;110.465;973.42;-1130.475;-2704.854;-1136.158
3.960257;10242500;136;10241328;148.855;-165.835;990.849;14460.173;-8091.743;49793.516;;;;;;;
3.962757;10245000;126;;;;;;;;;;;;;;
3.965257;10247500;135;;;;;;;;;;;;;;
3.967757;10250000;138;;;;;;;;;;;;;;
3.970257;10252500;390;;;;;;;;;;;;;;
3.972757;10255000;238;;;;;;;;;;;;;;
3.975257;10257500;185;;;;;;;;;;;;;;
3.977757;10260000;156;;;;;;;;;;;;;;
3.980257;10262500;138;;;;;;;;;;;;;;
3.982757;10265000;154;;;;;;;;;;;;;;
3.985257;10267500;135;;;;;;;;;;;;;;
3.987757;10270000;140;;;;;;;;;;;;;;
3.990257;10272500;169;10273687;149.879;-163.869;991.009;13732.352;-7929.53;49115.09;10273261;211.312;109.535;973.11;-1107.202;-2723.174;-1190.475
3.992757;10275000;157;;;;;;;;;;;;;;
3.995257;10277500;156;;;;;;;;;;;;;;
3.997757;10280000;143;;;;;;;;;;;;;;
4.000257;10282500;155;;;;;;;;;;;;;;
4.002757;10285000;359;;;;;;;;;;;;;;
4.005257;10287500;205;;;;;;;;;;;;;;
4.007757;10290000;158;;;;;;;;;;;;;;
4.010257;10292500;154;;;;;;;;;;;;;;
4.012757;10295000;157;;;;;;;;;;;;;;
4.015257;10297500;173;;;;;;;;;;;;;;
4.017757;10300000;142;;;;;;;;;;;;;;
4.020257;10302500;136;;;;;;;;;;;;;;
4.022757;10305000;126;10306074;151.925;-161.318;993.046;12875.983;-7509.429;48263.648;10305634;212.983;109.499;973.645;-1168.217;-2685.891;-1140.576
4.025257;10307500;133;;;;;;;;;;;;;;
4.027757;10310000;159;;;;;;;;;;;;;;
4.030257;10312500;150;;;;;;;;;;;;;;
4.032757;10315000;172;;;;;;;;;;;;;;
4.035257;10317500;331;;;;;;;;;;;;;;
4.037757;10320000;216;;;;;;;;;;;;;;
4.040257;10322500;175;;;;;;;;;;;;;;
4.042757;10325000;138;;;;;;;;;;;;;;
4.045257;10327500;155;;;;;;;;;;;;;;
4.047757;10330000;139;;;;;;;;;;;;;;
4.050257;10332500;152;;;;;;;;;;;;;;
4.052757;10335000;174;;;;;;;;;;;;;;
4.055257;10337500;154;;;;;;;;;;;;;;
4.057757;10340000;168;;;;;;;;;;;;;;
4.060257;10342500;137;;;;;;;;;;;;;;
4.062757;10345000;151;;;;;;;;;;;;;;
4.065257;10347500;409;10347820;153.729;-156.479;992.896;11891.371;-6931.395;47960.09;10347385;212.466;107.812;974.366;-1247.618;-2650.908;-996.047
4.067757;10350000;261;;;;;;;;;;;;;;
4.070257;10352500;204;;;;;;;;;;;;;;
4.072757;10355000;168;;;;;;;;;;;;;;
4.075257;10357500;176;;;;;;;;;;;;;;
4.077757;10360000;151;;;;;;;;;;;;;;
4.080257;10362500;136;;;;;;;;;;;;;;
4.082757;10365000;152;;;;;;;;;;;;;;
4.085257;10367500;134;;;;;;;;;;;;;;
4.087757;10370000;155;;;;;;;;;;;;;;
4.090257;10372500;151;;;;;;;;;;;;;;
4.092757;10375000;156;;;;;;;;;;;;;;
4.095257;10377500;154;;;;;;;;;;;;;;
4.097757;10380000;377;10380111;151.825;-153.889;990.581;10575.803;-7236.262;47847.148;10379678;212.786;106.777;974.924;-1634.987;-3236.301;-749.807
4.100257;10382500;240;;;;;;;;;;;;;;
4.102757;10385000;155;;;;;;;;;;;;;;
4.105257;10387500;137;;;;;;;;;;;;;;
4.107757;10390000;139;;;;;;;;;;;;;;
4.110257;10392500;143;;;;;;;;;;;;;;
4.112757;10395000;153;;;;;;;;;;;;;;
4.115257;10397500;152;;;;;;;;;;;;;;
4.117757;10400000;141;;;;;;;;;;;;;;
4.120257;10402500;154;;;;;;;;;;;;;;
4.122757;10405000;134;;;;;;;;;;;;;;
4.125257;10407500;151;;;;;;;;;;;;;;
4.127757;10410000;139;;;;;;;;;;;;;;
4.130257;10412500;376;10412391;149.26;-154.338;988.455;9246.388;-8026.824;47458.539;10411957;215.725;103.421;972.855;-2298.3;-4287.673;-355.755
4.132757;10415000;266;;;;;;;;;;;;;;
4.135257;10417500;184;;;;;;;;;;;;;;
4.137757;10420000;154;;;;;;;;;;;;;;
4.140257;10422500;135;;;;;;;;;;;;;;
4.142757;10425000;125;;;;;;;;;;;;;;
4.145257;10427500;144;;;;;;;;;;;;;;
4.147757;10430000;156;;;;;;;;;;;;;;
4.150257;10432500;139;;;;;;;;;;;;;;
4.152757;10435000;140;;;;;;;;;;;;;;
4.155257;10437500;138;;;;;;;;;;;;;;
4.157757;10440000;143;;;;;;;;;;;;;;
4.160257;10442500;142;;;;;;;;;;;;;;
4.162757;10445000;137;10444596;150.862;-159.041;988.186;7341.631;-9336.982;46327.676;10444155;218.78;101.159;973.421;-3050.073;-5188.477;-57.092
4.165257;10447500;120;;;;;;;;;;;;;;
4.167757;10450000;144;;;;;;;;;;;;;;
4.170257;10452500;139;;;;;;;;;;;;;;
4.172757;10455000;320;;;;;;;;;;;;;;
4.175257;10457500;234;;;;;;;;;;;;;;
4.177757;10460000;158;;;;;;;;;;;;;;
4.180257;10462500;154;;;;;;;;;;;;;;
4.182757;10465000;124;;;;;;;;;;;;;;
4.185257;10467500;121;;;;;;;;;;;;;;
4.187757;10470000;152;;;;;;;;;;;;;;
4.190257;10472500;139;;;;;;;;;;;;;;
4.192757;10475000;170;10475059;153.536;-163.356;986.747;5620.487;-9693.945;44627.73;10474633;228.386;97.059;965.412;-3334.632;-4993.365;128.2
4.195257;10477500;141;;;;;;;;;;;;;;
4.197757;10480000;158;;;;;;;;;;;;;;
4.200257;10482500;152;;;;;;;;;;;;;;
4.202757;10485000;122;;;;;;;;;;;;;;
4.205257;10487500;315;;;;;;;;;;;;;;
4.207757;10490000;188;;;;;;;;;;;;;;
4.210257;10492500;184;;;;;;;;;;;;;;
4.212757;10495000;173;;;;;;;;;;;;;;
4.215257;10497500;172;;;;;;;;;;;;;;
4.217757;10500000;157;;;;;;;;;;;;;;
4.220257;10502500;144;;;;;;;;;;;;;;
4.222757;10505000;140;;;;;;;;;;;;;;
4.225257;10507500;142;10507098;161.579;-162.673;993.127;5109.337;-8575.311;43111.219;10506658;235.394;90.083;963.404;-3104.462;-4261.572;-48.397
4.227757;10510000;136;;;;;;;;;;;;;;
4.230257;10512500;167;;;;;;;;;;;;;;
4.232757;10515000;172;;;;;;;;;;;;;;
4.235257;10517500;171;;;;;;;;;;;;;;
4.237757;10520000;312;;;;;;;;;;;;;;
4.240257;10522500;185;;;;;;;;;;;;;;
4.242757;10525000;158;;;;;;;;;;;;;;
4.245257;10527500;152;;;;;;;;;;;;;;
4.247757;10530000;138;;;;;;;;;;;;;;
4.250257;10532500;166;;;;;;;;;;;;;;
4.252757;10535000;152;;;;;;;;;;;;;;
4.255257;10537500;152;;;;;;;;10538682;236.752;75.929;963.485;-3787.489;-4261.118;-128.665
4.257757;10540000;141;10539118;169.391;-173.059;995.168;5656.246;-7951.42;42214.344;;;;;;;
4.260257;10542500;136;;;;;;;;;;;;;;
4.262757;10545000;134;;;;;;;;;;;;;;
4.265257;10547500;126;;;;;;;;;;;;;;
4.267757;10550000;31;;;;;;;;;;;;;;
4.270257;10552500;285;;;;;;;;;;;;;;
4.272757;10555000;205;;;;;;;;;;;;;;
4.275257;10557500;171;;;;;;;;;;;;;;
4.277757;10560000;150;;;;;;;;;;;;;;
4.280257;10562500;135;;;;;;;;;;;;;;
4.282757;10565000;125;;;;;;;;;;;;;;
4.285257;10567500;143;;;;;;;;;;;;;;
4.287757;10570000;156;10571055;172.054;-170.628;991.995;5491.121;-7003.911;41541.688;10570622;236.681;76.14;965.465;-3591.115;-5115.125;-39.107
4.290257;10572500;169;;;;;;;;;;;;;;
4.292757;10575000;155;;;;;;;;;;;;;;
4.295257;10577500;153;;;;;;;;;;;;;;
4.297757;10580000;168;;;;;;;;;;;;;;
4.300257;10582500;314;;;;;;;;;;;;;;
4.302757;10585000;201;;;;;;;;;;;;;;
4.305257;10587500;139;;;;;;;;;;;;;;
4.307757;10590000;139;;;;;;;;;;;;;;
4.310257;10592500;169;;;;;;;;;;;;;;
4.312757;10595000;153;;;;;;;;;;;;;;
4.315257;10597500;144;;;;;;;;;;;;;;
4.317757;10600000;141;;;;;;;;;;;;;;
4.320257;10602500;125;10603081;172.302;-172.966;991.97;4597.502;-6698.778;40710.164;10602647;239.536;74.596;965.839;-3962.809;-5785.119;-31.464
4.322757;10605000;123;;;;;;;;;;;;;;
4.325257;10607500;123;;;;;;;;;;;;;;
4.327757;10610000;135;;;;;;;;;;;;;;
4.330257;10612500;207;;;;;;;;;;;;;;
4.332757;10615000;284;;;;;;;;;;;;;;
4.335257;10617500;199;;;;;;;;;;;;;;
4.337757;10620000;175;;;;;;;;;;;;;;
4.340257;10622500;153;;;;;;;;;;;;;;
4.342757;10625000;123;;;;;;;;;;;;;;
4.345257;10627500;142;;;;;;;;;;;;;;
4.347757;10630000;136;;;;;;;;;;;;;;
4.350257;10632500;160;10633563;169.458;-181.008;988.427;4228.064;-6158.214;38863.219;10633123;245.786;71.3;963.968;-4145.731;-5884.8;-84.578
4.352757;10635000;154;;;;;;;;;;;;;;
4.355257;10637500;170;;;;;;;;;;;;;;
4.357757;10640000;159;;;;;;;;;;;;;;
4.360257;10642500;125;;;;;;;;;;;;;;
4.362757;10645000;4;;;;;;;;;;;;;;
4.365257;10647500;263;;;;;;;;;;;;;;
4.367757;10650000;189;;;;;;;;;;;;;;
4.370257;10652500;172;;;;;;;;;;;;;;
4.372757;10655000;154;10656196;167.5;-186.298;984.804;4741.599;-5882.241;36213.496;10655770;252.211;67.594;962.093;-4021.132;-5476.81;-300.412
4.375257;10657500;170;;;;;;;;;;;;;;
4.377757;10660000;140;;;;;;;;;;;;;;
4.380257;10662500;128;;;;;;;;;;;;;;
4.382757;10665000;141;;;;;;;;;;;;;;
4.385257;10667500;143;;;;;;;;;;;;;;
4.387757;10670000;135;;;;;;;;;;;;;;
4.390257;10672500;141;;;;;;;;;;;;;;
4.392757;10675000;171;;;;;;;;;;;;;;
4.395257;10677500;393;;;;;;;;;;;;;;
4.397757;10680000;253;;;;;;;;;;;;;;
4.400257;10682500;184;;;;;;;;;;;;;;
4.402757;10685000;155;;;;;;;;;;;;;;
4.405257;10687500;143;10688322;168.848;-185.273;984.956;5274.519;-5914.066;33804.32;10687882;253.497;65.239;962.05;-3670.451;-4489.407;-535.641
4.407757;10690000;153;;;;;;;;;;;;;;
4.410257;10692500;141;;;;;;;;;;;;;;
4.412757;10695000;169;;;;;;;;;;;;;;
4.415257;10697500;169;;;;;;;;;;;;;;
4.417757;10700000;158;;;;;;;;;;;;;;
4.420257;10702500;154;;;;;;;;;;;;;;
4.422757;10705000;124;;;;;;;;;;;;;;
4.425257;10707500;143;;;;;;;;;;;;;;
4.427757;10710000;349;;;;;;;;;;;;;;
4.430257;10712500;218;;;;;;;;;;;;;;
4.432757;10715000;174;;;;;;;;;;;;;;
4.435257;10717500;156;;;;;;;;10718445;252.479;63.496;963.053;-3538.553;-4386.562;-679.922
4.437757;10720000;167;10718873;173.502;-182.622;989.919;4921.542;-5819.613;31704.166;;;;;;;
4.440257;10722500;126;;;;;;;;;;;;;;
4.442757;10725000;122;;;;;;;;;;;;;;
4.445257;10727500;125;;;;;;;;;;;;;;
4.447757;10730000;134;;;;;;;;;;;;;;
4.450257;10732500;167;;;;;;;;;;;;;;
4.452757;10735000;173;;;;;;;;;;;;;;
4.455257;10737500;155;;;;;;;;;;;;;;
4.457757;10740000;366;;;;;;;;;;;;;;
4.460257;10742500;218;;;;;;;;;;;;;;
4.462757;10745000;171;;;;;;;;;;;;;;
4.465257;10747500;136;;;;;;;;;;;;;;
4.467757;10750000;139;10750910;174.288;-184.849;988.637;4664.09;-4709.195;29429.895;10750471;254.135;62.792;962.712;-3483.688;-4500.171;-543.55
4.470257;10752500;152;;;;;;;;;;;;;;
4.472757;10755000;157;;;;;;;;;;;;;;
4.475257;10757500;172;;;;;;;;;;;;;;
4.477757;10760000;143;;;;;;;;;;;;;;
4.480257;10762500;366;;;;;;;;;;;;;;
4.482757;10765000;215;;;;;;;;;;;;;;
4.485257;10767500;154;;;;;;;;;;;;;;
4.487757;10770000;158;;;;;;;;;;;;;;
4.490257;10772500;169;;;;;;;;;;;;;;
4.492757;10775000;153;;;;;;;;;;;;;;
4.495257;10777500;154;;;;;;;;;;;;;;
4.497757;10780000;142;;;;;;;;;;;;;;
4.500257;10782500;142;10783010;173.778;-188.154;985.15;4863.136;-4027.047;26343.588;10782583;258.557;61.257;961.735;-3205.816;-4227.913;-542.623
4.502757;10785000;122;;;;;;;;;;;;;;
4.505257;10787500;142;;;;;;;;;;;;;;
4.507757;10790000;127;;;;;;;;;;;;;;
4.510257;10792500;166;;;;;;;;;;;;;;
4.512757;10795000;362;;;;;;;;;;;;;;
4.515257;10797500;251;;;;;;;;;;;;;;
4.517757;10800000;174;;;;;;;;;;;;;;
4.520257;10802500;140;;;;;;;;;;;;;;
4.522757;10805000;144;;;;;;;;;;;;;;
4.525257;10807500;124;;;;;;;;;;;;;;
4.527757;10810000;155;;;;;;;;;;;;;;
4.530257;10812500;137;;;;;;;;;;;;;;
4.532757;10815000;174;10815135;172.111;-190.806;983.93;4907.854;-3559.258;22806.971;10814695;260.837;59.707;961.088;-2558.588;-3376.892;-647.617
4.535257;10817500;171;;;;;;;;;;;;;;
4.537757;10820000;142;;;;;;;;;;;;;;
4.540257;10822500;152;;;;;;;;;;;;;;
4.542757;10825000;29;;;;;;;;;;;;;;
4.545257;10827500;238;;;;;;;;;;;;;;
4.547757;10830000;187;;;;;;;;;;;;;;
4.550257;10832500;155;;;;;;;;;;;;;;
4.552757;10835000;174;;;;;;;;;;;;;;
4.555257;10837500;169;;;;;;;;;;;;;;
4.557757;10840000;140;;;;;;;;;;;;;;
4.560257;10842500;151;;;;;;;;;;;;;;
4.562757;10845000;120;;;;;;;;;;;;;;
4.565257;10847500;138;10847241;173.314;-187.031;985.4;4916.649;-2928.92;19440.621;10846806;258.5;60.442;963.389;-2001.908;-2581.11;-753.048
4.567757;10850000;127;;;;;;;;;;;;;;
4.570257;10852500;168;;;;;;;;;;;;;;
4.572757;10855000;172;;;;;;;;;;;;;;
4.575257;10857500;363;;;;;;;;;;;;;;
4.577757;10860000;247;;;;;;;;;;;;;;
4.580257;10862500;156;;;;;;;;;;;;;;
4.582757;10865000;152;;;;;;;;;;;;;;
4.585257;10867500;141;;;;;;;;;;;;;;
4.587757;10870000;134;;;;;;;;;;;;;;
4.590257;10872500;168;;;;;;;;;;;;;;
4.592757;10875000;171;;;;;;;;;;;;;;
4.595257;10877500;170;10877802;176.256;-189.867;988.645;5110.504;-2484.099;15785.402;10877370;258.666;59.872;963.898;-1583.313;-2364.992;-735.958
4.597757;10880000;140;;;;;;;;;;;;;;
4.600257;10882500;126;;;;;;;;;;;;;;
4.602757;10885000;141;;;;;;;;;;;;;;
4.605257;10887500;141;;;;;;;;;;;;;;
4.607757;10890000;346;;;;;;;;;;;;;;
4.610257;10892500;216;;;;;;;;;;;;;;
4.612757;10895000;174;;;;;;;;;;;;;;
4.615257;10897500;174;;;;;;;;;;;;;;
4.617757;10900000;140;;;;;;;;;;;;;;
4.620257;10902500;126;;;;;;;;;;;;;;
4.622757;10905000;124;;;;;;;;;;;;;;
4.625257;10907500;124;;;;;;;;;;;;;;
4.627757;10910000;155;10909916;175.685;-189.548;988.239;6723.979;-2028.706;11349.569;10909482;259.067;60.026;964.802;-1221.085;-2280.867;-662.848
4.630257;10912500;144;;;;;;;;;;;;;;
4.632757;10915000;171;;;;;;;;;;;;;;
4.635257;10917500;153;;;;;;;;;;;;;;
4.637757;10920000;140;;;;;;;;;;;;;;
4.640257;10922500;316;;;;;;;;;;;;;;
4.642757;10925000;175;;;;;;;;;;;;;;
4.645257;10927500;138;;;;;;;;;;;;;;
4.647757;10930000;138;;;;;;;;;;;;;;
4.650257;10932500;150;;;;;;;;;;;;;;
4.652757;10935000;173;;;;;;;;;;;;;;
4.655257;10937500;172;;;;;;;;;;;;;;
4.657757;10940000;141;;;;;;;;;;;;;;
4.660257;10942500;128;10942034;173.165;-178.527;985.48;5890.779;-2472.396;6826.216;10941593;260.193;59.959;964.868;-884.406;-2022.011;-606.518
4.662757;10945000;121;;;;;;;;;;;;;;
4.665257;10947500;141;;;;;;;;;;;;;;
4.667757;10950000;137;;;;;;;;;;;;;;
4.670257;10952500;151;;;;;;;;;;;;;;
4.672757;10955000;297;;;;;;;;;;;;;;
4.675257;10957500;205;;;;;;;;;;;;;;
4.677757;10960000;175;;;;;;;;;;;;;;
4.680257;10962500;136;;;;;;;;;;;;;;
4.682757;10965000;121;;;;;;;;;;;;;;
4.685257;10967500;124;;;;;;;;;;;;;;
4.687757;10970000;153;;;;;;;;;;;;;;
4.690257;10972500;142;;;;;;;;10973360;260.853;59.31;964.662;-483.185;-1695.598;-574.442
4.692757;10975000;155;10973786;175.67;-180.294;987.799;2580.99;-3299.901;2715.405;;;;;;;
4.695257;10977500;152;;;;;;;;;;;;;;
4.697757;10980000;158;;;;;;;;;;;;;;
4.700257;10982500;152;;;;;;;;;;;;;;
4.702757;10985000;327;;;;;;;;;;;;;;
4.705257;10987500;186;;;;;;;;;;;;;;
4.707757;10990000;155;;;;;;;;;;;;;;
4.710257;10992500;169;;;;;;;;;;;;;;
4.712757;10995000;173;;;;;;;;;;;;;;
4.715257;10997500;152;;;;;;;;;;;;;;
4.717757;11000000;141;;;;;;;;;;;;;;
4.720257;11002500;142;;;;;;;;;;;;;;
4.722757;11005000;124;11005738;182.088;-184.388;993.334;1344.628;-3612.656;-2084.115;11005298;263.03;58.424;964.112;-95.901;-1397.756;-522.97
4.725257;11007500;150;;;;;;;;;;;;;;
4.727757;11010000;136;;;;;;;;;;;;;;
4.730257;11012500;151;;;;;;;;;;;;;;
4.732757;11015000;155;;;;;;;;;;;;;;
4.735257;11017500;317;;;;;;;;;;;;;;
4.737757;11020000;219;;;;;;;;;;;;;;
4.740257;11022500;152;;;;;;;;;;;;;;
4.742757;11025000;127;;;;;;;;;;;;;;
4.745257;11027500;151;;;;;;;;;;;;;;
4.747757;11030000;138;;;;;;;;;;;;;;
4.750257;11032500;169;;;;;;;;;;;;;;
4.752757;11035000;151;11036122;184.61;-184.905;994.761;1969.522;-3291.585;-7342.347;11035687;262.524;58.437;964.298;260.644;-684.305;-474.947
4.755257;11037500;170;;;;;;;;;;;;;;
4.757757;11040000;159;;;;;;;;;;;;;;
4.760257;11042500;153;;;;;;;;;;;;;;
4.762757;11045000;151;;;;;;;;;;;;;;
4.765257;11047500;0;;;;;;;;;;;;;;
4.767757;11050000;286;;;;;;;;;;;;;;
4.770257;11052500;215;;;;;;;;;;;;;;
4.772757;11055000;169;;;;;;;;;;;;;;
4.775257;11057500;153;;;;;;;;;;;;;;
4.777757;11060000;140;;;;;;;;;;;;;;
4.780257;11062500;144;;;;;;;;;;;;;;
4.782757;11065000;124;;;;;;;;;;;;;;
4.785257;11067500;125;11067972;182.882;-175.305;989.992;2641.483;-3294.569;-12451.854;11067539;262.0;58.096;964.639;479.049;-311.903;-547.449
4.787757;11070000;135;;;;;;;;;;;;;;
4.790257;11072500;140;;;;;;;;;;;;;;
4.792757;11075000;154;;;;;;;;;;;;;;
4.795257;11077500;152;;;;;;;;;;;;;;
4.797757;11080000;383;;;;;;;;;;;;;;
4.800257;11082500;221;;;;;;;;;;;;;;
4.802757;11085000;152;;;;;;;;;;;;;;
4.805257;11087500;154;;;;;;;;;;;;;;
4.807757;11090000;155;;;;;;;;;;;;;;
4.810257;11092500;140;;;;;;;;;;;;;;
4.812757;11095000;152;;;;;;;;;;;;;;
4.815257;11097500;151;;;;;;;;;;;;;;
4.817757;11100000;158;11099912;182.65;-172.024;985.437;3000.284;-3708.215;-17484.824;11099478;262.357;57.966;964.652;733.784;-119.558;-699.452
4.820257;11102500;124;;;;;;;;;;;;;;
4.822757;11105000;121;;;;;;;;;;;;;;
4.825257;11107500;125;;;;;;;;;;;;;;
4.827757;11110000;128;;;;;;;;;;;;;;
4.830257;11112500;376;;;;;;;;;;;;;;
4.832757;11115000;235;;;;;;;;;;;;;;
4.835257;11117500;176;;;;;;;;;;;;;;
4.837757;11120000;153;;;;;;;;;;;;;;
4.840257;11122500;138;;;;;;;;;;;;;;
4.842757;11125000;143;;;;;;;;;;;;;;
4.845257;11127500;125;;;;;;;;;;;;;;
4.847757;11130000;137;;;;;;;;;;;;;;
4.850257;11132500;141;11131856;188.097;-172.561;989.742;1039.895;-4460.804;-23049.707;11131415;263.58;57.807;964.756;964.408;355.42;-801.854
4.852757;11135000;152;;;;;;;;;;;;;;
4.855257;11137500;171;;;;;;;;;;;;;;
4.857757;11140000;141;;;;;;;;;;;;;;
4.860257;11142500;376;;;;;;;;;;;;;;
4.862757;11145000;216;;;;;;;;;;;;;;
4.865257;11147500;174;;;;;;;;;;;;;;
4.867757;11150000;143;;;;;;;;;;;;;;
4.870257;11152500;153;;;;;;;;;;;;;;
4.872757;11155000;173;;;;;;;;;;;;;;
4.875257;11157500;153;;;;;;;;;;;;;;
4.877757;11160000;160;;;;;;;;;;;;;;
4.880257;11162500;137;11163608;197.34;-168.056;990.842;-351.725;-4946.514;-29159.283;11163182;265.224;57.863;964.757;1454.312;1275.212;-968.699
4.882757;11165000;143;;;;;;;;;;;;;;
4.885257;11167500;151;;;;;;;;;;;;;;
4.887757;11170000;140;;;;;;;;;;;;;;
4.890257;11172500;168;;;;;;;;;;;;;;
4.892757;11175000;335;;;;;;;;;;;;;;
4.895257;11177500;248;;;;;;;;;;;;;;
4.897757;11180000;187;;;;;;;;;;;;;;
4.900257;11182500;157;;;;;;;;;;;;;;
4.902757;11185000;143;;;;;;;;;;;;;;
4.905257;11187500;127;;;;;;;;;;;;;;
4.907757;11190000;138;;;;;;;;;;;;;;
4.910257;11192500;168;;;;;;;;11193658;268.866;55.879;962.147;1802.909;2227.764;-1052.389
4.912757;11195000;172;11194098;196.983;-161.441;989.972;1421.111;-4688.251;-33419.008;;;;;;;
4.915257;11197500;173;;;;;;;;;;;;;;
4.917757;11200000;142;;;;;;;;;;;;;;
4.920257;11202500;137;;;;;;;;;;;;;;
4.922757;11205000;124;;;;;;;;;;;;;;
4.925257;11207500;301;;;;;;;;;;;;;;
4.927757;11210000;206;;;;;;;;;;;;;;
4.930257;11212500;158;;;;;;;;;;;;;;
4.932757;11215000;158;;;;;;;;;;;;;;
4.935257;11217500;171;11216819;201.542;-147.769;992.634;3042.743;-4344.463;-37407.992;11216391;265.366;57.294;963.224;2171.701;3200.5;-1183.957
4.937757;11220000;139;;;;;;;;;;;;;;
4.940257;11222500;152;;;;;;;;;;;;;;
4.942757;11225000;122;;;;;;;;;;;;;;
4.945257;11227500;141;;;;;;;;;;;;;;
4.947757;11230000;138;;;;;;;;;;;;;;
4.950257;11232500;142;;;;;;;;;;;;;;
4.952757;11235000;152;;;;;;;;;;;;;;
4.955257;11237500;18;;;;;;;;;;;;;;
4.957757;11240000;284;;;;;;;;;;;;;;
4.960257;11242500;171;;;;;;;;;;;;;;
4.962757;11245000;138;;;;;;;;;;;;;;
4.965257;11247500;135;;;;;;;;11248328;261.327;59.309;964.668;2296.741;3942.6;-1367.134
4.967757;11250000;139;11248768;203.134;-138.526;994.541;3824.231;-4216.053;-40497.531;;;;;;;
4.970257;11252500;170;;;;;;;;;;;;;;
4.972757;11255000;154;;;;;;;;;;;;;;
4.975257;11257500;171;;;;;;;;;;;;;;
4.977757;11260000;140;;;;;;;;;;;;;;
4.980257;11262500;136;;;;;;;;;;;;;;
4.982757;11265000;144;;;;;;;;;;;;;;
4.985257;11267500;153;;;;;;;;;;;;;;
4.987757;11270000;377;;;;;;;;;;;;;;
4.990257;11272500;238;;;;;;;;;;;;;;
4.992757;11275000;188;;;;;;;;;;;;;;
4.995257;11277500;184;;;;;;;;;;;;;;
4.997757;11280000;168;11279319;205.708;-129.324;995.841;4040.332;-4430.938;-43181.027;11278893;258.527;61.419;965.326;2180.154;4329.095;-1350.402
5.000257;11282500;135;;;;;;;;;;;;;;
5.002757;11285000;124;;;;;;;;;;;;;;
5.005257;11287500;127;;;;;;;;;;;;;;
5.007757;11290000;157;;;;;;;;;;;;;;
5.010257;11292500;144;;;;;;;;;;;;;;
5.012757;11295000;153;;;;;;;;;;;;;;
5.015257;11297500;154;;;;;;;;;;;;;;
5.017757;11300000;0;;;;;;;;;;;;;;
5.020257;11302500;264;;;;;;;;;;;;;;
5.022757;11305000;158;;;;;;;;;;;;;;
5.025257;11307500;137;;;;;;;;;;;;;;
5.027757;11310000;137;;;;;;;;11310918;253.268;63.935;967.202;2048.396;4726.016;-1337.132
5.030257;11312500;167;11311358;207.787;-123.291;993.671;3615.628;-4608.828;-45788.977;;;;;;;
5.032757;11315000;153;;;;;;;;;;;;;;
5.035257;11317500;168;;;;;;;;;;;;;;
5.037757;11320000;167;;;;;;;;;;;;;;
5.040257;11322500;363;;;;;;;;;;;;;;
5.042757;11325000;265;;;;;;;;;;;;;;
5.045257;11327500;168;;;;;;;;;;;;;;
5.047757;11330000;150;;;;;;;;;;;;;;
5.050257;11332500;153;;;;;;;;;;;;;;
5.052757;11335000;155;;;;;;;;;;;;;;
5.055257;11337500;170;;;;;;;;;;;;;;
5.057757;11340000;142;;;;;;;;;;;;;;
5.060257;11342500;154;11343464;209.994;-115.498;990.769;2672.284;-4314.512;-48004.465;11343029;249.047;65.173;967.831;1825.226;4884.777;-1328.026
5.062757;11345000;125;;;;;;;;;;;;;;
5.065257;11347500;126;;;;;;;;;;;;;;
5.067757;11350000;155;;;;;;;;;;;;;;
5.070257;11352500;151;;;;;;;;;;;;;;
5.072757;11355000;413;;;;;;;;;;;;;;
5.075257;11357500;267;;;;;;;;;;;;;;
5.077757;11360000;172;;;;;;;;;;;;;;
5.080257;11362500;157;;;;;;;;;;;;;;
5.082757;11365000;125;;;;;;;;;;;;;;
5.085257;11367500;153;;;;;;;;;;;;;;
5.087757;11370000;155;;;;;;;;;;;;;;
5.090257;11372500;167;;;;;;;;;;;;;;
5.092757;11375000;171;11375575;212.427;-106.508;987.663;2294.544;-3950.036;-49560.117;11375142;246.428;65.685;968.282;1702.027;5073.664;-1343.437
5.095257;11377500;154;;;;;;;;;;;;;;
5.097757;11380000;142;;;;;;;;;;;;;;
5.100257;11382500;153;;;;;;;;;;;;;;
5.102757;11385000;18;;;;;;;;;;;;;;
5.105257;11387500;268;;;;;;;;;;;;;;
5.107757;11390000;173;;;;;;;;;;;;;;
5.110257;11392500;156;;;;;;;;;;;;;;
5.112757;11395000;174;;;;;;;;;;;;;;
5.115257;11397500;168;;;;;;;;;;;;;;
5.117757;11400000;142;;;;;;;;;;;;;;
5.120257;11402500;136;;;;;;;;;;;;;;
5.122757;11405000;142;;;;;;;;;;;;;;
5.125257;11407500;143;11407688;213.895;-96.803;985.848;2287.442;-4019.847;-50482.359;11407254;242.366;66.347;968.887;1584.988;5040.043;-1292.453
5.127757;11410000;138;;;;;;;;;;;;;;
5.130257;11412500;141;;;;;;;;;;;;;;
5.132757;11415000;154;;;;;;;;;;;;;;
5.135257;11417500;411;;;;;;;;;;;;;;
5.137757;11420000;263;;;;;;;;;;;;;;
5.140257;11422500;167;;;;;;;;;;;;;;
5.142757;11425000;136;;;;;;;;;;;;;;
5.145257;11427500;135;;;;;;;;;;;;;;
5.147757;11430000;155;;;;;;;;;;;;;;
5.150257;11432500;168;;;;;;;;;;;;;;
5.152757;11435000;171;;;;;;;;;;;;;;
5.155257;11437500;153;11438170;214.272;-84.759;984.105;2094.32;-4367.917;-52100.055;11437730;237.549;66.44;969.749;1505.302;4800.291;-1226.955
5.157757;11440000;142;;;;;;;;;;;;;;
5.160257;11442500;153;;;;;;;;;;;;;;
5.162757;11445000;125;;;;;;;;;;;;;;
5.165257;11447500;126;;;;;;;;;;;;;;
5.167757;11450000;364;;;;;;;;;;;;;;
5.170257;11452500;234;;;;;;;;;;;;;;
5.172757;11455000;204;;;;;;;;;;;;;;
5.175257;11457500;158;;;;;;;;;;;;;;
5.177757;11460000;141;;;;;;;;;;;;;;
5.180257;11462500;134;;;;;;;;;;;;;;
5.182757;11465000;125;;;;;;;;;;;;;;
5.185257;11467500;142;;;;;;;;;;;;;;
5.187757;11470000;136;11470182;216.911;-76.873;984.798;1386.292;-4611.521;-53420.738;11469756;235.853;66.82;970.654;1431.349;4584.338;-1126.67
5.190257;11472500;143;;;;;;;;;;;;;;
5.192757;11475000;154;;;;;;;;;;;;;;
5.195257;11477500;154;;;;;;;;;;;;;;
5.197757;11480000;158;;;;;;;;;;;;;;
5.200257;11482500;347;;;;;;;;;;;;;;
5.202757;11485000;192;;;;;;;;;;;;;;
5.205257;11487500;169;;;;;;;;;;;;;;
5.207757;11490000;159;;;;;;;;;;;;;;
5.210257;11492500;153;;;;;;;;;;;;;;
5.212757;11495000;172;;;;;;;;;;;;;;
5.215257;11497500;171;;;;;;;;;;;;;;
5.217757;11500000;139;;;;;;;;;;;;;;
5.220257;11502500;153;11502222;221.536;-69.693;984.321;1274.102;-4813.195;-54072.949;11501782;233.783;67.17;970.829;1382.094;4530.122;-1083.461
5.222757;11505000;124;;;;;;;;;;;;;;
5.225257;11507500;150;;;;;;;;;;;;;;
5.227757;11510000;139;;;;;;;;;;;;;;
5.230257;11512500;143;;;;;;;;;;;;;;
5.232757;11515000;336;;;;;;;;;;;;;;
5.235257;11517500;216;;;;;;;;;;;;;;
5.237757;11520000;185;;;;;;;;;;;;;;
5.240257;11522500;137;;;;;;;;;;;;;;
5.242757;11525000;126;;;;;;;;;;;;;;
5.245257;11527500;152;;;;;;;;;;;;;;
5.247757;11530000;155;;;;;;;;;;;;;;
5.250257;11532500;169;;;;;;;;;;;;;;
5.252757;11535000;154;11534241;224.94;-62.121;985.144;1087.459;-4757.598;-53476.301;11533806;232.714;67.148;970.771;1403.114;4573.553;-1076.1
5.255257;11537500;170;;;;;;;;;;;;;;
5.257757;11540000;159;;;;;;;;;;;;;;
5.260257;11542500;137;;;;;;;;;;;;;;
5.262757;11545000;350;;;;;;;;;;;;;;
5.265257;11547500;221;;;;;;;;;;;;;;
5.267757;11550000;184;;;;;;;;;;;;;;
5.270257;11552500;169;;;;;;;;;;;;;;
5.272757;11555000;155;;;;;;;;;;;;;;
5.275257;11557500;172;;;;;;;;;;;;;;
5.277757;11560000;158;;;;;;;;;;;;;;
5.280257;11562500;127;;;;;;;;;;;;;;
5.282757;11565000;142;;;;;;;;11565832;230.216;66.987;971.374;1375.396;4659.875;-1080.92
5.285257;11567500;126;11566264;227.186;-56.288;986.041;1089.524;-4476.405;-51715.109;;;;;;;
5.287757;11570000;155;;;;;;;;;;;;;;
5.290257;11572500;149;;;;;;;;;;;;;;
5.292757;11575000;152;;;;;;;;;;;;;;
5.295257;11577500;315;;;;;;;;;;;;;;
5.297757;11580000;203;;;;;;;;;;;;;;
5.300257;11582500;170;;;;;;;;;;;;;;
5.302757;11585000;154;;;;;;;;;;;;;;
5.305257;11587500;152;;;;;;;;;;;;;;
5.307757;11590000;138;;;;;;;;;;;;;;
5.310257;11592500;143;;;;;;;;;;;;;;
5.312757;11595000;171;;;;;;;;;;;;;;
5.315257;11597500;152;11596743;228.765;-49.527;985.929;588.36;-3818.585;-49561.164;11596309;227.563;67.194;971.898;1373.564;4741.881;-1118.312
5.317757;11600000;141;;;;;;;;;;;;;;
5.320257;11602500;126;;;;;;;;;;;;;;
5.322757;11605000;124;;;;;;;;;;;;;;
5.325257;11607500;141;;;;;;;;;;;;;;
5.327757;11610000;280;;;;;;;;;;;;;;
5.330257;11612500;200;;;;;;;;;;;;;;
5.332757;11615000;169;;;;;;;;;;;;;;
5.335257;11617500;156;;;;;;;;;;;;;;
5.337757;11620000;159;11620868;229.96;-41.421;986.622;304.755;-3312.218;-47328.105;11620438;225.091;67.689;972.688;1388.448;4866.6;-1159.521
5.340257;11622500;126;;;;;;;;;;;;;;
5.342757;11625000;124;;;;;;;;;;;;;;
5.345257;11627500;124;;;;;;;;;;;;;;
5.347757;11630000;137;;;;;;;;;;;;;;
5.350257;11632500;169;;;;;;;;;;;;;;
5.352757;11635000;169;;;;;;;;;;;;;;
5.355257;11637500;152;;;;;;;;;;;;;;
5.357757;11640000;366;;;;;;;;;;;;;;
5.360257;11642500;248;;;;;;;;;;;;;;
5.362757;11645000;184;;;;;;;;;;;;;;
5.365257;11647500;158;;;;;;;;;;;;;;
5.367757;11650000;141;11651244;230.741;-35.562;986.609;27.454;-2859.17;-45298.574;11650806;222.59;68.014;973.397;1358.838;4866.082;-1160.608
5.370257;11652500;142;;;;;;;;;;;;;;
5.372757;11655000;154;;;;;;;;;;;;;;
5.375257;11657500;169;;;;;;;;;;;;;;
5.377757;11660000;157;;;;;;;;;;;;;;
5.380257;11662500;152;;;;;;;;;;;;;;
5.382757;11665000;123;;;;;;;;;;;;;;
5.385257;11667500;151;;;;;;;;;;;;;;
5.387757;11670000;136;;;;;;;;;;;;;;
5.390257;11672500;410;;;;;;;;;;;;;;
5.392757;11675000;269;;;;;;;;;;;;;;
5.395257;11677500;186;;;;;;;;;;;;;;
5.397757;11680000;173;;;;;;;;11681110;219.762;68.7;974.149;1345.584;4802.59;-1166.452
5.400257;11682500;137;11681539;230.477;-28.098;986.53;213.332;-2635.711;-43106.707;;;;;;;
5.402757;11685000;142;;;;;;;;;;;;;;
5.405257;11687500;143;;;;;;;;;;;;;;
5.407757;11690000;155;;;;;;;;;;;;;;
5.410257;11692500;168;;;;;;;;;;;;;;
5.412757;11695000;152;;;;;;;;;;;;;;
5.415257;11697500;152;;;;;;;;;;;;;;
5.417757;11700000;139;;;;;;;;;;;;;;
5.420257;11702500;364;;;;;;;;;;;;;;
5.422757;11705000;265;;;;;;;;;;;;;;
5.425257;11707500;168;;;;;;;;;;;;;;
5.427757;11710000;151;;;;;;;;;;;;;;
5.430257;11712500;152;11713485;231.403;-22.326;986.138;473.478;-2870.113;-41244.059;11713048;216.857;67.876;974.358;1331.242;4478.461;-1100.255
5.432757;11715000;153;;;;;;;;;;;;;;
5.435257;11717500;171;;;;;;;;;;;;;;
5.437757;11720000;142;;;;;;;;;;;;;;
5.440257;11722500;136;;;;;;;;;;;;;;
5.442757;11725000;144;;;;;;;;;;;;;;
5.445257;11727500;377;;;;;;;;;;;;;;
5.447757;11730000;239;;;;;;;;;;;;;;
5.450257;11732500;173;;;;;;;;;;;;;;
5.452757;11735000;184;;;;;;;;;;;;;;
5.455257;11737500;171;;;;;;;;;;;;;;
5.457757;11740000;141;;;;;;;;;;;;;;
5.460257;11742500;142;;;;;;;;;;;;;;
5.462757;11745000;123;11745422;233.296;-15.268;985.436;375.866;-3433.17;-39773.793;11744985;213.078;68.386;975.672;1299.242;4017.85;-979.617
5.465257;11747500;143;;;;;;;;;;;;;;
5.467757;11750000;154;;;;;;;;;;;;;;
5.470257;11752500;141;;;;;;;;;;;;;;
5.472757;11755000;151;;;;;;;;;;;;;;
5.475257;11757500;383;;;;;;;;;;;;;;
5.477757;11760000;234;;;;;;;;;;;;;;
5.480257;11762500;184;;;;;;;;;;;;;;
5.482757;11765000;135;;;;;;;;;;;;;;
5.485257;11767500;126;;;;;;;;;;;;;;
5.487757;11770000;138;;;;;;;;;;;;;;
5.490257;11772500;169;;;;;;;;;;;;;;
5.492757;11775000;153;;;;;;;;;;;;;;
5.495257;11777500;151;11777268;236.021;-9.545;986.221;147.073;-4104.574;-38881.039;11776838;210.952;68.474;976.408;1220.718;3797.27;-824.761
5.497757;11780000;139;;;;;;;;;;;;;;
5.500257;11782500;126;;;;;;;;;;;;;;
5.502757;11785000;149;;;;;;;;;;;;;;
5.505257;11787500;316;;;;;;;;;;;;;;
5.507757;11790000;248;;;;;;;;;;;;;;
5.510257;11792500;184;;;;;;;;;;;;;;
5.512757;11795000;168;;;;;;;;;;;;;;
5.515257;11797500;173;;;;;;;;;;;;;;
5.517757;11800000;159;;;;;;;;;;;;;;
5.520257;11802500;126;;;;;;;;;;;;;;
5.522757;11805000;125;;;;;;;;;;;;;;
5.525257;11807500;126;;;;;;;;11808603;209.737;68.46;976.693;1215.244;3560.594;-764.273
5.527757;11810000;156;11809040;239.012;-4.524;988.015;-12.531;-4951.971;-38203.551;;;;;;;
5.530257;11812500;150;;;;;;;;;;;;;;
5.532757;11815000;172;;;;;;;;;;;;;;
5.535257;11817500;152;;;;;;;;;;;;;;
5.537757;11820000;363;;;;;;;;;;;;;;
5.540257;11822500;235;;;;;;;;;;;;;;
5.542757;11825000;153;;;;;;;;;;;;;;
5.545257;11827500;155;;;;;;;;;;;;;;
5.547757;11830000;141;;;;;;;;;;;;;;
5.550257;11832500;143;;;;;;;;;;;;;;
5.552757;11835000;153;;;;;;;;;;;;;;
5.555257;11837500;154;;;;;;;;11838731;207.363;68.716;977.64;1168.92;3526.939;-727.372
5.557757;11840000;138;11839170;241.049;1.064;988.067;364.783;-6033.497;-38070.496;;;;;;;
5.560257;11842500;128;;;;;;;;;;;;;;
5.562757;11845000;142;;;;;;;;;;;;;;
5.565257;11847500;125;;;;;;;;;;;;;;
5.567757;11850000;155;;;;;;;;;;;;;;
5.570257;11852500;349;;;;;;;;;;;;;;
5.572757;11855000;221;;;;;;;;;;;;;;
5.575257;11857500;192;;;;;;;;;;;;;;
5.577757;11860000;154;;;;;;;;;;;;;;
5.580257;11862500;157;;;;;;;;;;;;;;
5.582757;11865000;143;;;;;;;;;;;;;;
5.585257;11867500;152;;;;;;;;;;;;;;
5.587757;11870000;157;11870839;243.826;8.167;985.847;931.482;-8009.447;-38524.66;11870411;207.255;68.543;977.845;1204.536;3575.467;-694.503
5.590257;11872500;153;;;;;;;;;;;;;;
5.592757;11875000;157;;;;;;;;;;;;;;
5.595257;11877500;156;;;;;;;;;;;;;;
5.597757;11880000;166;;;;;;;;;;;;;;
5.600257;11882500;152;;;;;;;;;;;;;;
5.602757;11885000;268;;;;;;;;;;;;;;
5.605257;11887500;174;;;;;;;;;;;;;;
5.607757;11890000;154;;;;;;;;;;;;;;
5.610257;11892500;170;;;;;;;;;;;;;;
5.612757;11895000;173;;;;;;;;;;;;;;
5.615257;11897500;155;;;;;;;;;;;;;;
5.617757;11900000;167;;;;;;;;;;;;;;
5.620257;11902500;155;11902526;246.994;11.449;982.842;1506.158;-10589.225;-38667.801;11902089;204.523;69.392;978.344;1269.872;3837.694;-624.778
5.622757;11905000;143;;;;;;;;;;;;;;
5.625257;11907500;152;;;;;;;;;;;;;;
5.627757;11910000;157;;;;;;;;;;;;;;
5.630257;11912500;151;;;;;;;;;;;;;;
5.632757;11915000;58;;;;;;;;;;;;;;
5.635257;11917500;281;;;;;;;;;;;;;;
5.637757;11920000;184;;;;;;;;;;;;;;
5.640257;11922500;142;;;;;;;;;;;;;;
5.642757;11925000;152;;;;;;;;;;;;;;
5.645257;11927500;152;;;;;;;;;;;;;;
5.647757;11930000;139;;;;;;;;;;;;;;
5.650257;11932500;152;;;;;;;;;;;;;;
5.652757;11935000;156;11934463;252.511;13.249;979.108;1631.225;-13768.889;-37884.16;11934026;202.862;68.961;978.38;1327.128;3920.997;-520.039
5.655257;11937500;172;;;;;;;;;;;;;;
5.657757;11940000;159;;;;;;;;;;;;;;
5.660257;11942500;128;;;;;;;;;;;;;;
5.662757;11945000;184;;;;;;;;;;;;;;
5.665257;11947500;247;;;;;;;;;;;;;;
5.667757;11950000;192;;;;;;;;;;;;;;
5.670257;11952500;184;;;;;;;;;;;;;;
5.672757;11955000;158;;;;;;;;;;;;;;
5.675257;11957500;153;;;;;;;;;;;;;;
5.677757;11960000;143;;;;;;;;;;;;;;
5.680257;11962500;153;;;;;;;;;;;;;;
5.682757;11965000;150;11966222;259.485;17.875;979.593;1594.288;-16880.57;-35885.828;11965792;199.368;68.971;979.59;1390.272;4114.322;-455.537
5.685257;11967500;135;;;;;;;;;;;;;;
5.687757;11970000;141;;;;;;;;;;;;;;
5.690257;11972500;152;;;;;;;;;;;;;;
5.692757;11975000;155;;;;;;;;;;;;;;
5.695257;11977500;361;;;;;;;;;;;;;;
5.697757;11980000;220;;;;;;;;;;;;;;
5.700257;11982500;157;;;;;;;;;;;;;;
5.702757;11985000;136;;;;;;;;;;;;;;
5.705257;11987500;136;;;;;;;;;;;;;;
5.707757;11990000;139;;;;;;;;;;;;;;
5.710257;11992500;143;;;;;;;;;;;;;;
5.712757;11995000;152;;;;;;;;11996182;195.164;69.103;980.533;1561.383;4386.793;-265.635
5.715257;11997500;154;11996618;269.984;19.483;979.749;1067.011;-18264.293;-33091.848;;;;;;;
5.717757;12000000;159;;;;;;;;;;;;;;
5.720257;12002500;137;;;;;;;;;;;;;;
5.722757;12005000;126;;;;;;;;;;;;;;
5.725257;12007500;134;;;;;;;;;;;;;;
5.727757;12010000;317;;;;;;;;;;;;;;
5.730257;12012500;205;;;;;;;;;;;;;;
5.732757;12015000;191;;;;;;;;;;;;;;
5.735257;12017500;183;;;;;;;;;;;;;;
5.737757;12020000;166;12020739;278.121;25.932;977.884;896.411;-19277.828;-30109.004;12020312;192.14;68.228;980.929;1633.814;4264.578;-98.354
5.740257;12022500;153;;;;;;;;;;;;;;
5.742757;12025000;126;;;;;;;;;;;;;;
5.745257;12027500;152;;;;;;;;;;;;;;
5.747757;12030000;156;;;;;;;;;;;;;;
5.750257;12032500;168;;;;;;;;;;;;;;
5.752757;12035000;174;;;;;;;;;;;;;;
5.755257;12037500;153;;;;;;;;;;;;;;
5.757757;12040000;0;;;;;;;;;;;;;;
5.760257;12042500;263;;;;;;;;;;;;;;
5.762757;12045000;189;;;;;;;;;;;;;;
5.765257;12047500;160;;;;;;;;;;;;;;
5.767757;12050000;142;12050859;285.577;34.036;973.654;860.778;-20928.873;-28241.303;12050419;191.213;68.386;980.951;1713.561;4081.537;-67.623
5.770257;12052500;170;;;;;;;;;;;;;;
5.772757;12055000;156;;;;;;;;;;;;;;
5.775257;12057500;154;;;;;;;;;;;;;;
5.777757;12060000;167;;;;;;;;;;;;;;
5.780257;12062500;136;;;;;;;;;;;;;;
5.782757;12065000;152;;;;;;;;;;;;;;
5.785257;12067500;153;;;;;;;;;;;;;;
5.787757;12070000;158;;;;;;;;;;;;;;
5.790257;12072500;411;;;;;;;;;;;;;;
5.792757;12075000;255;;;;;;;;;;;;;;
5.795257;12077500;207;;;;;;;;;;;;;;
5.797757;12080000;156;12081063;295.412;36.573;967.189;164.114;-23426.18;-26596.049;12080635;186.85;69.181;981.771;1702.695;4095.335;-20.055
5.800257;12082500;157;;;;;;;;;;;;;;
5.802757;12085000;153;;;;;;;;;;;;;;
5.805257;12087500;135;;;;;;;;;;;;;;
5.807757;12090000;158;;;;;;;;;;;;;;
5.810257;12092500;169;;;;;;;;;;;;;;
5.812757;12095000;155;;;;;;;;;;;;;;
5.815257;12097500;154;;;;;;;;;;;;;;
5.817757;12100000;140;;;;;;;;;;;;;;
5.820257;12102500;45;;;;;;;;;;;;;;
5.822757;12105000;239;;;;;;;;;;;;;;
5.825257;12107500;168;;;;;;;;;;;;;;
5.827757;12110000;151;;;;;;;;;;;;;;
5.830257;12112500;153;12112840;304.449;45.225;967.795;-723.029;-26273.746;-23734.996;12112400;186.883;68.565;980.262;1659.56;3757.568;168.198
5.832757;12115000;173;;;;;;;;;;;;;;
5.835257;12117500;154;;;;;;;;;;;;;;
5.837757;12120000;166;;;;;;;;;;;;;;
5.840257;12122500;128;;;;;;;;;;;;;;
5.842757;12125000;126;;;;;;;;;;;;;;
5.845257;12127500;363;;;;;;;;;;;;;;
5.847757;12130000;235;;;;;;;;;;;;;;
5.850257;12132500;171;;;;;;;;;;;;;;
5.852757;12135000;159;;;;;;;;;;;;;;
5.855257;12137500;153;;;;;;;;;;;;;;
5.857757;12140000;159;;;;;;;;;;;;;;
5.860257;12142500;134;;;;;;;;;;;;;;
5.862757;12145000;140;12144687;315.805;47.709;968.254;-1505.003;-29386.246;-21724.871;12144251;182.895;69.645;982.172;1579.645;3609.502;280.976
5.865257;12147500;134;;;;;;;;;;;;;;
5.867757;12150000;137;;;;;;;;;;;;;;
5.870257;12152500;169;;;;;;;;;;;;;;
5.872757;12155000;155;;;;;;;;;;;;;;
5.875257;12157500;361;;;;;;;;;;;;;;
5.877757;12160000;221;;;;;;;;;;;;;;
5.880257;12162500;155;;;;;;;;;;;;;;
5.882757;12165000;151;;;;;;;;;;;;;;
5.885257;12167500;127;;;;;;;;;;;;;;
5.887757;12170000;138;;;;;;;;;;;;;;
5.890257;12172500;143;;;;;;;;;;;;;;
5.892757;12175000;153;;;;;;;;12176191;181.954;68.645;982.467;1465.662;3385.714;372.802
5.895257;12177500;172;12176623;331.185;52.052;962.407;-1764.003;-31466.371;-20766.814;;;;;;;
5.897757;12180000;142;;;;;;;;;;;;;;
5.900257;12182500;134;;;;;;;;;;;;;;
5.902757;12185000;150;;;;;;;;;;;;;;
5.905257;12187500;392;;;;;;;;;;;;;;
5.907757;12190000;232;;;;;;;;;;;;;;
5.910257;12192500;201;;;;;;;;;;;;;;
5.912757;12195000;185;;;;;;;;;;;;;;
5.915257;12197500;172;;;;;;;;;;;;;;
5.917757;12200000;167;;;;;;;;;;;;;;
5.920257;12202500;134;;;;;;;;;;;;;;
5.922757;12205000;143;;;;;;;;;;;;;;
5.925257;12207500;143;12208476;348.719;53.329;956.486;-1947.49;-33606.117;-20022.91;12208043;179.792;68.842;982.595;1457.129;3183.616;412.349
5.927757;12210000;137;;;;;;;;;;;;;;
5.930257;12212500;168;;;;;;;;;;;;;;
5.932757;12215000;153;;;;;;;;;;;;;;
5.935257;12217500;170;;;;;;;;;;;;;;
5.937757;12220000;333;;;;;;;;;;;;;;
5.940257;12222500;190;;;;;;;;;;;;;;
5.942757;12225000;157;;;;;;;;;;;;;;
5.945257;12227500;125;;;;;;;;;;;;;;
5.947757;12230000;157;;;;;;;;;;;;;;
5.950257;12232500;151;;;;;;;;;;;;;;
5.952757;12235000;169;;;;;;;;;;;;;;
5.955257;12237500;169;;;;;;;;12238431;179.361;68.109;981.607;1440.273;2870.873;433.732
5.957757;12240000;139;12238872;364.052;54.914;948.208;-2199.678;-35597.312;-19167.889;;;;;;;
5.960257;12242500;127;;;;;;;;;;;;;;
5.962757;12245000;143;;;;;;;;;;;;;;
5.965257;12247500;126;;;;;;;;;;;;;;
5.967757;12250000;157;;;;;;;;;;;;;;
5.970257;12252500;286;;;;;;;;;;;;;;
5.972757;12255000;205;;;;;;;;;;;;;;
5.975257;12257500;189;;;;;;;;;;;;;;
5.977757;12260000;151;;;;;;;;;;;;;;
5.980257;12262500;153;;;;;;;;;;;;;;
5.982757;12265000;125;;;;;;;;;;;;;;
5.985257;12267500;144;;;;;;;;;;;;;;
5.987757;12270000;139;12270796;378.741;60.763;944.791;-2425.694;-36401.32;-18401.557;12270371;177.371;70.73;979.045;1576.072;2828.392;412.045
5.990257;12272500;142;;;;;;;;;;;;;;
5.992757;12275000;153;;;;;;;;;;;;;;
5.995257;12277500;152;;;;;;;;;;;;;;
5.997757;12280000;156;;;;;;;;;;;;;;
6.000257;12282500;21;;;;;;;;;;;;;;
6.002757;12285000;255;;;;;;;;;;;;;;
6.005257;12287500;156;;;;;;;;;;;;;;
6.007757;12290000;141;;;;;;;;;;;;;;
6.010257;12292500;169;;;;;;;;;;;;;;
6.012757;12295000;153;;;;;;;;;;;;;;
6.015257;12297500;169;;;;;;;;;;;;;;
6.017757;12300000;139;;;;;;;;;;;;;;
6.020257;12302500;125;12302749;389.383;67.565;919.975;-2572.597;-37653.379;-17956.166;12302309;176.573;71.299;977.038;1693.706;2641.472;378.318
6.022757;12305000;141;;;;;;;;;;;;;;
6.025257;12307500;125;;;;;;;;;;;;;;
6.027757;12310000;154;;;;;;;;;;;;;;
6.030257;12312500;143;;;;;;;;;;;;;;
6.032757;12315000;366;;;;;;;;;;;;;;
6.035257;12317500;252;;;;;;;;;;;;;;
6.037757;12320000;170;;;;;;;;;;;;;;
6.040257;12322500;136;;;;;;;;;;;;;;
6.042757;12325000;126;;;;;;;;;;;;;;
6.045257;12327500;127;;;;;;;;;;;;;;
6.047757;12330000;156;;;;;;;;;;;;;;
6.050257;12332500;143;;;;;;;;;;;;;;
6.052757;12335000;172;12334682;404.86;67.499;906.916;-2730.092;-40273.898;-17212.795;12334246;176.431;71.388;977.096;1736.77;2527.773;358.089
6.055257;12337500;152;;;;;;;;;;;;;;
6.057757;12340000;141;;;;;;;;;;;;;;
6.060257;12342500;151;;;;;;;;;;;;;;
6.062757;12345000;377;;;;;;;;;;;;;;
6.065257;12347500;232;;;;;;;;;;;;;;
6.067757;12350000;172;;;;;;;;;;;;;;
6.070257;12352500;158;;;;;;;;;;;;;;
6.072757;12355000;156;;;;;;;;;;;;;;
6.075257;12357500;172;;;;;;;;;;;;;;
6.077757;12360000;168;;;;;;;;;;;;;;
6.080257;12362500;154;;;;;;;;;;;;;;
6.082757;12365000;142;;;;;;;;12366186;175.027;70.82;978.353;1721.244;2397.885;337.56
6.085257;12367500;127;12366619;424.298;66.734;895.358;-2860.462;-42953.703;-16175.843;;;;;;;
6.087757;12370000;137;;;;;;;;;;;;;;
6.090257;12372500;143;;;;;;;;;;;;;;
6.092757;12375000;154;;;;;;;;;;;;;;
6.095257;12377500;378;;;;;;;;;;;;;;
6.097757;12380000;219;;;;;;;;;;;;;;
6.100257;12382500;155;;;;;;;;;;;;;;
6.102757;12385000;134;;;;;;;;;;;;;;
6.105257;12387500;134;;;;;;;;;;;;;;
6.107757;12390000;155;;;;;;;;;;;;;;
6.110257;12392500;143;;;;;;;;;;;;;;
6.112757;12395000;170;;;;;;;;;;;;;;
6.115257;12397500;151;12396923;444.136;67.814;883.573;-2669.314;-45170.516;-15045.051;12396489;174.858;70.792;978.424;1614.182;2193.99;306.245
6.117757;12400000;156;;;;;;;;;;;;;;
6.120257;12402500;153;;;;;;;;;;;;;;
6.122757;12405000;124;;;;;;;;;;;;;;
6.125257;12407500;151;;;;;;;;;;;;;;
6.127757;12410000;333;;;;;;;;;;;;;;
6.130257;12412500;235;;;;;;;;;;;;;;
6.132757;12415000;199;;;;;;;;;;;;;;
6.135257;12417500;154;;;;;;;;;;;;;;
6.137757;12420000;159;12421048;460.939;67.553;869.724;-2337.661;-47013.551;-13965.985;12420619;173.875;71.157;978.7;1543.973;1924.603;198.62
6.140257;12422500;151;;;;;;;;;;;;;;
6.142757;12425000;141;;;;;;;;;;;;;;
6.145257;12427500;150;;;;;;;;;;;;;;
6.147757;12430000;136;;;;;;;;;;;;;;
6.150257;12432500;142;;;;;;;;;;;;;;
6.152757;12435000;171;;;;;;;;;;;;;;
6.155257;12437500;152;;;;;;;;;;;;;;
6.157757;12440000;158;;;;;;;;;;;;;;
6.160257;12442500;271;;;;;;;;;;;;;;
6.162757;12445000;172;;;;;;;;;;;;;;
6.165257;12447500;168;;;;;;;;;;;;;;
6.167757;12450000;156;;;;;;;;12450900;172.519;70.161;979.37;1528.899;1727.748;155.001
6.170257;12452500;151;12451337;475.962;71.532;852.632;-1428.465;-48818.246;-13224.373;;;;;;;
6.172757;12455000;153;;;;;;;;;;;;;;
6.175257;12457500;169;;;;;;;;;;;;;;
6.177757;12460000;138;;;;;;;;;;;;;;
6.180257;12462500;126;;;;;;;;;;;;;;
6.182757;12465000;123;;;;;;;;;;;;;;
6.185257;12467500;126;;;;;;;;;;;;;;
6.187757;12470000;156;;;;;;;;;;;;;;
6.190257;12472500;26;;;;;;;;;;;;;;
6.192757;12475000;265;;;;;;;;;;;;;;
6.195257;12477500;185;;;;;;;;;;;;;;
6.197757;12480000;153;;;;;;;;;;;;;;
6.200257;12482500;153;12481719;494.51;76.032;832.845;-953.229;-50888.832;-12559.217;12481290;169.859;67.586;984.026;1436.704;1447.986;130.626
6.202757;12485000;122;;;;;;;;;;;;;;
6.205257;12487500;123;;;;;;;;;;;;;;
6.207757;12490000;138;;;;;;;;;;;;;;
6.210257;12492500;143;;;;;;;;;;;;;;
6.212757;12495000;171;;;;;;;;;;;;;;
6.215257;12497500;153;;;;;;;;;;;;;;
6.217757;12500000;141;;;;;;;;;;;;;;
6.220257;12502500;37;;;;;;;;;;;;;;
6.222757;12505000;252;;;;;;;;;;;;;;
6.225257;12507500;188;;;;;;;;;;;;;;
6.227757;12510000;153;;;;;;;;;;;;;;
6.230257;12512500;170;12513579;516.083;77.36;814.371;-1035.943;-53616.703;-11870.006;12513141;169.308;66.939;983.936;1369.244;945.961;138.532
6.232757;12515000;153;;;;;;;;;;;;;;
6.235257;12517500;153;;;;;;;;;;;;;;
6.237757;12520000;158;;;;;;;;;;;;;;
6.240257;12522500;152;;;;;;;;;;;;;;
6.242757;12525000;124;;;;;;;;;;;;;;
6.245257;12527500;365;;;;;;;;;;;;;;
6.247757;12530000;248;;;;;;;;;;;;;;
6.250257;12532500;173;;;;;;;;;;;;;;
6.252757;12535000;183;;;;;;;;;;;;;;
6.255257;12537500;152;;;;;;;;;;;;;;
6.257757;12540000;158;;;;;;;;;;;;;;
6.260257;12542500;152;;;;;;;;;;;;;;
6.262757;12545000;124;12545429;535.316;73.333;790.189;-1583.521;-56066.43;-10751.068;12544992;171.317;66.789;985.467;1280.657;630.476;100.543
6.265257;12547500;144;;;;;;;;;;;;;;
6.267757;12550000;138;;;;;;;;;;;;;;
6.270257;12552500;167;;;;;;;;;;;;;;
6.272757;12555000;170;;;;;;;;;;;;;;
6.275257;12557500;394;;;;;;;;;;;;;;
6.277757;12560000;238;;;;;;;;;;;;;;
6.280257;12562500;160;;;;;;;;;;;;;;
6.282757;12565000;155;;;;;;;;;;;;;;
6.285257;12567500;142;;;;;;;;;;;;;;
6.287757;12570000;138;;;;;;;;;;;;;;
6.290257;12572500;141;;;;;;;;;;;;;;
6.292757;12575000;169;;;;;;;;;;;;;;
6.295257;12577500;142;12577275;557.216;68.831;765.295;-2051.22;-57855.984;-9726.14;12576845;175.677;65.627;985.878;1213.124;110.264;137.516
6.297757;12580000;159;;;;;;;;;;;;;;
6.300257;12582500;128;;;;;;;;;;;;;;
6.302757;12585000;152;;;;;;;;;;;;;;
6.305257;12587500;368;;;;;;;;;;;;;;
6.307757;12590000;255;;;;;;;;;;;;;;
6.310257;12592500;205;;;;;;;;;;;;;;
6.312757;12595000;171;;;;;;;;;;;;;;
6.315257;12597500;174;;;;;;;;;;;;;;
6.317757;12600000;166;;;;;;;;;;;;;;
6.320257;12602500;134;;;;;;;;;;;;;;
6.322757;12605000;144;;;;;;;;;;;;;;
6.325257;12607500;125;;;;;;;;12608610;176.506;64.548;986.208;1184.843;31.251;6.39
6.327757;12610000;136;12609046;575.55;67.512;740.005;-2142.471;-59021.871;-8607.646;;;;;;;
6.330257;12612500;159;;;;;;;;;;;;;;
6.332757;12615000;171;;;;;;;;;;;;;;
6.335257;12617500;152;;;;;;;;;;;;;;
6.337757;12620000;366;;;;;;;;;;;;;;
6.340257;12622500;236;;;;;;;;;;;;;;
6.342757;12625000;155;;;;;;;;;;;;;;
6.345257;12627500;127;;;;;;;;;;;;;;
6.347757;12630000;140;;;;;;;;;;;;;;
6.350257;12632500;152;;;;;;;;;;;;;;
6.352757;12635000;172;;;;;;;;;;;;;;
6.355257;12637500;153;;;;;;;;12638565;176.703;64.358;985.685;1335.163;19.189;-110.742
6.357757;12640000;165;12639004;594.011;70.279;714.009;-2525.785;-60267.277;-7794.451;;;;;;;
6.360257;12642500;135;;;;;;;;;;;;;;
6.362757;12645000;127;;;;;;;;;;;;;;
6.365257;12647500;153;;;;;;;;;;;;;;
6.367757;12650000;138;;;;;;;;;;;;;;
6.370257;12652500;330;;;;;;;;;;;;;;
6.372757;12655000;223;;;;;;;;;;;;;;
6.375257;12657500;175;;;;;;;;;;;;;;
6.377757;12660000;171;;;;;;;;;;;;;;
6.380257;12662500;137;;;;;;;;;;;;;;
6.382757;12665000;125;;;;;;;;;;;;;;
6.385257;12667500;126;;;;;;;;;;;;;;
6.387757;12670000;136;12670759;615.959;71.17;692.034;-3307.746;-61502.039;-6863.103;12670331;177.634;63.666;986.482;1349.342;-6.271;-165.142
6.390257;12672500;160;;;;;;;;;;;;;;
6.392757;12675000;154;;;;;;;;;;;;;;
6.395257;12677500;153;;;;;;;;;;;;;;
6.397757;12680000;141;;;;;;;;;;;;;;
6.400257;12682500;127;;;;;;;;;;;;;;
6.402757;12685000;288;;;;;;;;;;;;;;
6.405257;12687500;182;;;;;;;;;;;;;;
6.407757;12690000;153;;;;;;;;;;;;;;
6.410257;12692500;152;;;;;;;;;;;;;;
6.412757;12695000;154;;;;;;;;;;;;;;
6.415257;12697500;170;;;;;;;;;;;;;;
6.417757;12700000;141;;;;;;;;;;;;;;
6.420257;12702500;135;12702533;635.932;74.138;666.539;-2805.921;-62271.25;-6578.573;12702095;176.884;63.752;987.104;1350.563;-19.082;-191.885
6.422757;12705000;142;;;;;;;;;;;;;;
6.425257;12707500;151;;;;;;;;;;;;;;
6.427757;12710000;154;;;;;;;;;;;;;;
6.430257;12712500;141;;;;;;;;;;;;;;
6.432757;12715000;327;;;;;;;;;;;;;;
6.435257;12717500;279;;;;;;;;;;;;;;
6.437757;12720000;192;;;;;;;;;;;;;;
6.440257;12722500;157;;;;;;;;;;;;;;
6.442757;12725000;124;;;;;;;;;;;;;;
6.445257;12727500;144;;;;;;;;;;;;;;
6.447757;12730000;138;;;;;;;;;;;;;;
6.450257;12732500;170;;;;;;;;;;;;;;
6.452757;12735000;155;12734383;652.246;73.859;637.293;-1956.437;-62909.688;-6454.394;12733946;177.378;63.572;986.604;1299.222;-63.628;-198.041
6.455257;12737500;170;;;;;;;;;;;;;;
6.457757;12740000;166;;;;;;;;;;;;;;
6.460257;12742500;153;;;;;;;;;;;;;;
6.462757;12745000;345;;;;;;;;;;;;;;
6.465257;12747500;235;;;;;;;;;;;;;;
6.467757;12750000;191;;;;;;;;;;;;;;
6.470257;12752500;174;;;;;;;;;;;;;;
6.472757;12755000;155;;;;;;;;;;;;;;
6.475257;12757500;171;;;;;;;;;;;;;;
6.477757;12760000;139;;;;;;;;;;;;;;
6.480257;12762500;142;;;;;;;;;;;;;;
6.482757;12765000;142;12766055;668.513;74.443;605.484;-1221.615;-63243.203;-6608.987;12765625;177.049;63.364;986.806;1281.511;10.428;-254.639
6.485257;12767500;124;;;;;;;;;;;;;;
6.487757;12770000;155;;;;;;;;;;;;;;
6.490257;12772500;142;;;;;;;;;;;;;;
6.492757;12775000;153;;;;;;;;;;;;;;
6.495257;12777500;367;;;;;;;;;;;;;;
6.497757;12780000;219;;;;;;;;;;;;;;
6.500257;12782500;172;;;;;;;;;;;;;;
6.502757;12785000;125;;;;;;;;;;;;;;
6.505257;12787500;151;;;;;;;;;;;;;;
6.507757;12790000;157;;;;;;;;;;;;;;
6.510257;12792500;143;;;;;;;;;;;;;;
6.512757;12795000;153;;;;;;;;12795842;176.694;64.368;986.705;1319.373;327.969;-388.907
6.515257;12797500;142;12796278;687.333;71.196;578.699;-102.66;-63077.043;-7463.725;;;;;;;
6.517757;12800000;158;;;;;;;;;;;;;;
6.520257;12802500;126;;;;;;;;;;;;;;
6.522757;12805000;124;;;;;;;;;;;;;;
6.525257;12807500;126;;;;;;;;;;;;;;
6.527757;12810000;300;;;;;;;;;;;;;;
6.530257;12812500;231;;;;;;;;;;;;;;
6.532757;12815000;172;;;;;;;;;;;;;;
6.535257;12817500;156;;;;;;;;;;;;;;
6.537757;12820000;140;12820225;702.987;66.654;549.861;651.036;-62547.754;-7621.664;12819797;175.692;64.194;987.225;1301.529;351.821;-404.461
6.540257;12822500;127;;;;;;;;;;;;;;
6.542757;12825000;141;;;;;;;;;;;;;;
6.545257;12827500;124;;;;;;;;;;;;;;
6.547757;12830000;155;;;;;;;;;;;;;;
6.550257;12832500;141;;;;;;;;;;;;;;
6.552757;12835000;151;;;;;;;;;;;;;;
6.555257;12837500;170;;;;;;;;;;;;;;
6.557757;12840000;0;;;;;;;;;;;;;;
6.560257;12842500;253;;;;;;;;;;;;;;
6.562757;12845000;160;;;;;;;;;;;;;;
6.565257;12847500;142;;;;;;;;;;;;;;
6.567757;12850000;159;12850345;718.065;66.53;524.204;1507.484;-61998.555;-6591.768;12849905;175.85;64.193;987.438;1305.578;234.48;-405.238
6.570257;12852500;151;;;;;;;;;;;;;;
6.572757;12855000;171;;;;;;;;;;;;;;
6.575257;12857500;151;;;;;;;;;;;;;;
6.577757;12860000;138;;;;;;;;;;;;;;
6.580257;12862500;124;;;;;;;;;;;;;;
6.582757;12865000;142;;;;;;;;;;;;;;
6.585257;12867500;151;;;;;;;;;;;;;;
6.587757;12870000;139;;;;;;;;;;;;;;
6.590257;12872500;377;;;;;;;;;;;;;;
6.592757;12875000;266;;;;;;;;;;;;;;
6.595257;12877500;186;;;;;;;;;;;;;;
6.597757;12880000;173;12880549;730.931;69.834;499.238;2800.61;-61269.0;-5416.929;12880121;178.8;63.447;986.201;1369.361;123.881;-405.976
6.600257;12882500;156;;;;;;;;;;;;;;
6.602757;12885000;151;;;;;;;;;;;;;;
6.605257;12887500;125;;;;;;;;;;;;;;
6.607757;12890000;156;;;;;;;;;;;;;;
6.610257;12892500;143;;;;;;;;;;;;;;
6.612757;12895000;154;;;;;;;;;;;;;;
6.615257;12897500;169;;;;;;;;;;;;;;
6.617757;12900000;138;;;;;;;;;;;;;;
6.620257;12902500;408;;;;;;;;;;;;;;
6.622757;12905000;238;;;;;;;;;;;;;;
6.625257;12907500;156;;;;;;;;;;;;;;
6.627757;12910000;168;;;;;;;;;;;;;;
6.630257;12912500;150;12912326;742.154;71.088;468.677;3137.892;-60606.988;-4443.02;12911886;178.9;63.057;985.6;1340.706;-81.376;-350.678
6.632757;12915000;172;;;;;;;;;;;;;;
6.635257;12917500;143;;;;;;;;;;;;;;
6.637757;12920000;156;;;;;;;;;;;;;;
6.640257;12922500;151;;;;;;;;;;;;;;
6.642757;12925000;123;;;;;;;;;;;;;;
6.645257;12927500;302;;;;;;;;;;;;;;
6.647757;12930000;201;;;;;;;;;;;;;;
6.650257;12932500;170;;;;;;;;;;;;;;
6.652757;12935000;176;;;;;;;;;;;;;;
6.655257;12937500;154;;;;;;;;;;;;;;
6.657757;12940000;159;;;;;;;;;;;;;;
6.660257;12942500;136;;;;;;;;12943650;179.178;63.271;985.632;1306.92;-224.307;-316.956
6.662757;12945000;124;12944086;753.529;69.608;439.832;3281.997;-59529.199;-3833.244;;;;;;;
6.665257;12947500;143;;;;;;;;;;;;;;
6.667757;12950000;136;;;;;;;;;;;;;;
6.670257;12952500;169;;;;;;;;;;;;;;
6.672757;12955000;153;;;;;;;;;;;;;;
6.675257;12957500;344;;;;;;;;;;;;;;
6.677757;12960000;220;;;;;;;;;;;;;;
6.680257;12962500;152;;;;;;;;;;;;;;
6.682757;12965000;150;;;;;;;;;;;;;;
6.685257;12967500;126;;;;;;;;;;;;;;
6.687757;12970000;138;;;;;;;;;;;;;;
6.690257;12972500;142;;;;;;;;;;;;;;
6.692757;12975000;151;12975848;765.891;67.335;411.972;3166.022;-57875.301;-3571.582;12975416;178.942;63.176;985.584;1291.449;-387.217;-261.296
6.695257;12977500;169;;;;;;;;;;;;;;
6.697757;12980000;138;;;;;;;;;;;;;;
6.700257;12982500;127;;;;;;;;;;;;;;
6.702757;12985000;124;;;;;;;;;;;;;;
6.705257;12987500;329;;;;;;;;;;;;;;
6.707757;12990000;232;;;;;;;;;;;;;;
6.710257;12992500;170;;;;;;;;;;;;;;
6.712757;12995000;158;;;;;;;;;;;;;;
6.715257;12997500;152;;;;;;;;;;;;;;
6.717757;13000000;140;;;;;;;;;;;;;;
6.720257;13002500;134;;;;;;;;;;;;;;
6.722757;13005000;143;;;;;;;;;;;;;;
6.725257;13007500;126;13007702;777.628;64.701;384.95;3422.034;-55543.723;-3295.878;13007268;179.56;63.329;985.477;1312.189;-545.043;-168.606
6.727757;13010000;140;;;;;;;;;;;;;;
6.730257;13012500;152;;;;;;;;;;;;;;
6.732757;13015000;172;;;;;;;;;;;;;;
6.735257;13017500;153;;;;;;;;;;;;;;
6.737757;13020000;302;;;;;;;;;;;;;;
6.740257;13022500;183;;;;;;;;;;;;;;
6.742757;13025000;139;;;;;;;;;;;;;;
6.745257;13027500;153;;;;;;;;;;;;;;
6.747757;13030000;139;;;;;;;;;;;;;;
6.750257;13032500;151;;;;;;;;;;;;;;
6.752757;13035000;153;;;;;;;;;;;;;;
6.755257;13037500;151;13038011;788.23;64.571;358.371;3361.182;-52609.035;-3043.146;13037570;180.287;62.92;984.881;1352.017;-577.729;-114.238
6.757757;13040000;157;;;;;;;;;;;;;;
6.760257;13042500;126;;;;;;;;;;;;;;
6.762757;13045000;125;;;;;;;;;;;;;;
6.765257;13047500;127;;;;;;;;;;;;;;
6.767757;13050000;17;;;;;;;;;;;;;;
6.770257;13052500;265;;;;;;;;;;;;;;
6.772757;13055000;208;;;;;;;;;;;;;;
6.775257;13057500;186;;;;;;;;;;;;;;
6.777757;13060000;140;;;;;;;;;;;;;;
6.780257;13062500;152;;;;;;;;;;;;;;
6.782757;13065000;123;;;;;;;;;;;;;;
6.785257;13067500;152;;;;;;;;;;;;;;
6.787757;13070000;156;13069849;799.845;64.898;333.858;3021.623;-49443.957;-2890.114;13069423;180.771;62.732;984.864;1497.042;-628.905;-101.526
6.790257;13072500;170;;;;;;;;;;;;;;
6.792757;13075000;170;;;;;;;;;;;;;;
6.795257;13077500;152;;;;;;;;;;;;;;
6.797757;13080000;141;;;;;;;;;;;;;;
6.800257;13082500;366;;;;;;;;;;;;;;
