timestamp_s;timestamp_us;emg_raw;imu1_timestamp_us;imu1_ax;imu1_ay;imu1_az;imu1_gx;imu1_gy;imu1_gz;imu2_timestamp_us;imu2_ax;imu2_ay;imu2_az;imu2_gx;imu2_gy;imu2_gz
0.0;97302851;;97302851;150.67;-496.906;880.962;-1898.75;805.0;1435.0;;;;;;;
0.01161;97314461;;97314461;123.952;-468.236;894.382;1592.5;-1198.75;-1566.25;97314048;-139.08;-52.46;992.47;1933.75;577.5;-428.75
0.02334;97326191;;97326191;151.524;-453.352;889.99;1776.25;245.0;175.0;97325775;-125.782;-50.264;995.764;1478.75;8.75;-166.25
0.034539;97337390;;97337390;114.314;-480.192;938.302;-1216.25;455.0;831.25;97336976;-140.422;-45.262;996.252;1933.75;568.75;-385.0
0.045977;97348828;;97348828;135.42;-483.73;878.4;-1592.5;-717.5;-507.5;97348412;-128.588;-59.536;989.298;367.5;-1487.5;17.5
0.057544;97360395;;97360395;112.728;-459.33;922.808;1076.25;253.75;490.0;97359981;-132.492;-52.216;992.104;2257.5;-1181.25;-490.0
0.06907;97371921;;97371921;136.762;-479.46;884.744;-113.75;-761.25;-490.0;97371505;-130.906;-49.898;992.714;3045.0;-1321.25;-525.0
0.080801;97383652;;97383652;137.982;-451.156;897.066;2730.0;-87.5;-157.5;97383238;-122.244;-40.626;1000.278;1863.75;-1242.5;-428.75
0.092499;97395350;;97395350;124.562;-473.116;899.994;-1653.75;26.25;385.0;97394935;-129.32;-39.162;991.738;1820.0;52.5;-533.75
0.103811;97406662;;97406662;131.028;-478.728;893.406;262.5;35.0;201.25;97406248;-129.564;-59.048;992.958;1058.75;-78.75;-350.0
0.11492;97417771;;97417771;128.588;-467.26;903.288;192.5;-148.75;52.5;97417356;-131.882;-52.948;984.174;1863.75;105.0;-315.0
0.126203;97429054;;97429054;130.052;-483.364;890.966;1015.0;-105.0;35.0;97428640;-134.444;-47.336;989.42;2432.5;157.5;-455.0
0.137632;97440483;;97440483;129.442;-445.91;915.732;883.75;-306.25;-297.5;97440067;-132.614;-46.116;1000.522;1330.0;-437.5;-227.5
0.149291;97452142;;97452142;131.516;-475.8;889.136;-2835.0;43.75;665.0;97451729;-131.394;-52.704;992.348;1111.25;-105.0;-245.0
0.160714;97463565;;97463565;119.926;-486.902;902.434;-43.75;271.25;463.75;97463149;-134.81;-53.314;992.348;735.0;-603.75;-367.5
0.171945;97474796;;97474796;127.49;-466.406;897.31;1041.25;-428.75;-315.0;97474382;-133.468;-55.754;993.446;1951.25;-691.25;-253.75
0.183632;97486483;;97486483;131.882;-464.21;899.994;980.0;-122.5;26.25;97486067;-129.564;-50.996;987.59;2520.0;-157.5;-507.5
0.194946;97497797;;97497797;130.784;-462.38;903.044;96.25;-245.0;-87.5;97497384;-127.246;-42.944;1000.278;1400.0;-752.5;-218.75
0.206405;97509256;;97509256;143.472;-475.8;899.262;-218.75;8.75;175.0;97508841;-124.562;-52.704;1005.402;1076.25;-288.75;-210.0
0.217773;97520624;;97520624;127.368;-466.528;906.216;560.0;-140.0;-17.5;97520210;-124.196;-51.484;1000.156;2065.0;551.25;-393.75
0.229322;97532173;;97532173;142.252;-482.022;885.842;892.5;-201.25;26.25;97531757;-128.954;-41.48;984.54;2476.25;761.25;-411.25
0.240515;97543366;;97543366;122.854;-477.752;909.022;2231.25;78.75;-210.0;97542952;-147.62;-43.798;985.516;2275.0;288.75;-507.5
0.251978;97554829;;97554829;155.794;-481.29;876.326;-892.5;-665.0;-770.0;97554414;-129.686;-68.686;1002.84;577.5;-8.75;-210.0
0.263424;97566275;;97566275;101.504;-478.362;915.61;78.75;341.25;813.75;97565861;-132.736;-57.34;996.74;1198.75;402.5;-420.0
0.27454;97577391;;97577391;125.05;-475.556;890.478;682.5;-735.0;-700.0;97576975;-130.784;-51.24;994.422;1785.0;-673.75;-288.75
0.286163;97589014;;97589014;129.808;-457.866;901.458;2537.5;52.5;-131.25;97588601;-132.126;-58.682;998.204;1688.75;-577.5;-288.75
0.297595;97600446;;97600446;115.29;-462.502;895.602;-927.5;-463.75;-61.25;97600030;-136.64;-55.388;999.79;1715.0;-875.0;-323.75
0.309149;97612000;;97612000;131.028;-463.356;895.236;980.0;-35.0;148.75;97611587;-129.076;-53.558;997.716;516.25;-761.25;-183.75
0.32037;97623221;;97623221;123.098;-460.306;909.632;420.0;-52.5;271.25;97622805;-132.98;-45.872;994.544;1968.75;-236.25;-393.75
0.331738;97634589;;97634589;132.858;-476.166;892.796;393.75;-271.25;17.5;97634175;-131.516;-52.094;994.056;2257.5;236.25;-516.25
0.343024;97645875;;97645875;127.246;-458.11;909.51;560.0;-113.75;-140.0;97645459;-132.736;-54.778;995.886;1338.75;61.25;-218.75
0.354458;97657309;;97657309;128.588;-480.68;893.894;-892.5;17.5;262.5;97656895;-131.028;-45.262;986.37;1671.25;-262.5;-297.5
0.365765;97668616;;97668616;122.61;-469.944;904.386;1076.25;-61.25;17.5;97668200;-131.516;-50.874;996.008;1723.75;-358.75;-358.75
0.377133;97679984;;97679984;132.126;-462.38;898.53;245.0;-306.25;-288.75;97679570;-128.954;-57.218;997.838;1846.25;-210.0;-323.75
0.388761;97691612;;97691612;123.708;-470.92;906.826;1076.25;35.0;96.25;97691196;-131.516;-41.724;986.736;2012.5;-402.5;-428.75
0.399959;97702810;;97702810;126.392;-454.328;903.044;385.0;-297.5;-201.25;97702396;-127.734;-46.36;996.74;1443.75;-647.5;-227.5
0.411593;97714444;;97714444;130.296;-470.432;892.552;-761.25;-43.75;341.25;97714028;-124.806;-54.412;999.302;1645.0;-175.0;-367.5
0.423021;97725872;;97725872;123.098;-470.066;904.142;831.25;-192.5;-166.25;97725459;-130.296;-53.558;998.692;1697.5;-245.0;-376.25
0.434593;97737444;;97737444;130.906;-459.452;900.36;1260.0;-122.5;-157.5;97737028;-127.246;-50.142;991.494;2187.5;-43.75;-376.25
0.446119;97748970;;97748970;128.1;-468.114;904.752;157.5;-87.5;210.0;97748556;-131.516;-48.068;990.396;1627.5;96.25;-358.75
0.457255;97760106;;97760106;127.246;-472.506;899.872;-78.75;-218.75;-26.25;97759690;-134.078;-49.41;992.958;1382.5;-52.5;-253.75
0.468672;97771523;;97771523;126.758;-470.676;899.506;857.5;-70.0;35.0;97771109;-131.638;-48.678;995.154;1618.75;-26.25;-280.0
0.479814;97782665;;97782665;128.71;-464.576;902.312;770.0;-157.5;-26.25;97782250;-129.686;-49.288;994.544;2030.0;61.25;-306.25
0.491155;97794006;;97794006;128.222;-466.772;901.702;411.25;-122.5;113.75;97793592;-136.518;-50.142;994.422;2038.75;-52.5;-341.25
0.502554;97805405;;97805405;127.612;-467.992;899.872;376.25;-78.75;26.25;97804989;-130.296;-50.02;992.836;1470.0;-551.25;-236.25
0.51375;97816601;;97816601;129.564;-474.092;902.8;472.5;-78.75;96.25;97816187;-132.858;-53.436;993.934;1776.25;-122.5;-358.75
0.525035;97827886;;97827886;129.93;-468.968;900.238;603.75;-253.75;-17.5;97827471;-131.394;-49.166;991.86;2143.75;-245.0;-402.5
0.536552;97839403;;97839403;131.638;-465.796;900.848;665.0;-105.0;43.75;97838989;-131.516;-53.314;993.446;1601.25;-323.75;-385.0
0.547864;97850715;;97850715;127.856;-469.944;903.044;166.25;-52.5;113.75;97850300;-131.272;-46.238;993.812;1478.75;-332.5;-210.0
0.559233;97862084;;97862084;131.516;-470.92;898.774;437.5;-122.5;17.5;97861670;-128.466;-50.142;991.738;1548.75;-393.75;-210.0
0.570605;97873456;;97873456;130.662;-470.798;900.482;630.0;-113.75;78.75;97873040;-129.076;-52.46;993.934;1863.75;-96.25;-297.5
0.581887;97884738;;97884738;128.222;-468.724;900.848;770.0;-122.5;26.25;97884324;-131.882;-47.336;993.934;1758.75;-96.25;-332.5
0.593172;97896023;;97896023;127.856;-464.332;903.898;682.5;-70.0;17.5;97895608;-131.272;-48.678;995.154;1645.0;87.5;-297.5
0.604279;97907130;;97907130;128.832;-470.554;898.408;-183.75;-17.5;157.5;97906716;-133.712;-48.678;993.446;1557.5;96.25;-280.0
0.615636;97918487;;97918487;125.416;-471.53;900.848;551.25;-122.5;61.25;97918071;-132.126;-52.582;992.226;1487.5;-262.5;-227.5
0.626934;97929785;;97929785;128.466;-466.772;900.97;813.75;-166.25;-96.25;97929371;-130.662;-55.754;994.178;1828.75;-350.0;-297.5
0.638461;97941312;;97941312;126.514;-467.748;905.118;551.25;-78.75;96.25;97940896;-131.638;-50.874;997.472;1933.75;-288.75;-420.0
0.649674;97952525;;97952525;127.49;-466.528;899.75;140.0;-96.25;52.5;97952111;-132.736;-46.726;993.08;1680.0;-507.5;-358.75
0.66096;97963811;;97963811;125.294;-469.456;901.946;262.5;-8.75;245.0;97963395;-132.126;-50.264;994.178;1531.25;-481.25;-376.25
0.672241;97975092;;97975092;128.222;-471.164;902.068;428.75;-87.5;61.25;97974678;-131.516;-53.68;995.032;1863.75;-332.5;-437.5
0.683526;97986377;;97986377;127.368;-468.724;901.214;595.0;-96.25;17.5;97985962;-129.32;-49.044;991.128;1837.5;-385.0;-376.25
0.694808;97997659;;97997659;128.832;-469.212;900.238;253.75;-70.0;157.5;97997245;-132.736;-51.118;994.178;1618.75;-393.75;-367.5
0.706182;98009033;;98009033;130.54;-471.042;898.896;288.75;-52.5;87.5;98008617;-128.71;-52.094;995.886;1540.0;-411.25;-376.25
0.717462;98020313;;98020313;129.076;-467.626;900.482;463.75;-148.75;8.75;98019899;-129.076;-51.972;994.056;1916.25;-288.75;-420.0
0.728748;98031599;;98031599;130.418;-468.114;900.97;647.5;-113.75;17.5;98031183;-132.736;-49.532;989.786;1916.25;-148.75;-385.0
0.740117;98042968;;98042968;126.27;-468.48;904.142;525.0;-96.25;8.75;98042555;-129.32;-50.996;996.252;1706.25;-245.0;-332.5
0.751314;98054165;;98054165;130.662;-466.894;898.774;393.75;-175.0;17.5;98053749;-130.418;-50.996;993.08;1820.0;-315.0;-358.75
0.762685;98065536;;98065536;128.344;-468.358;900.848;516.25;-96.25;26.25;98065122;-128.222;-51.484;996.008;1837.5;-306.25;-288.75
0.773969;98076820;;98076820;129.32;-471.164;900.36;700.0;-131.25;17.5;98076404;-129.198;-51.118;993.934;2065.0;-428.75;-420.0
0.785339;98088190;;98088190;129.32;-467.382;902.922;848.75;-131.25;-26.25;98087776;-130.784;-48.8;992.958;2047.5;-490.0;-428.75
0.796906;98099757;;98099757;130.174;-468.724;901.214;428.75;-113.75;96.25;98099341;-130.296;-51.118;989.786;1916.25;-481.25;-420.0
0.808166;98111017;;98111017;128.71;-471.896;902.19;227.5;-105.0;70.0;98110603;-128.954;-52.216;994.3;1601.25;-516.25;-402.5
0.819538;98122389;;98122389;129.442;-469.212;902.312;621.25;-210.0;8.75;98121974;-131.15;-51.362;995.276;1890.0;-481.25;-376.25
0.830819;98133670;;98133670;131.028;-466.65;898.53;498.75;-113.75;96.25;98133256;-128.832;-50.142;995.276;1802.5;-78.75;-367.5
0.842106;98144957;;98144957;128.588;-470.676;901.824;332.5;-96.25;87.5;98144541;-129.32;-49.776;994.056;1513.75;35.0;-341.25
0.853212;98156063;;98156063;129.32;-469.7;900.848;428.75;-131.25;96.25;98155650;-131.638;-50.752;993.934;1505.0;-105.0;-315.0
0.864586;98167437;;98167437;130.418;-468.724;900.604;481.25;-157.5;17.5;98167021;-128.71;-50.874;993.202;1671.25;-17.5;-323.75
0.875867;98178718;;98178718;128.954;-470.676;899.262;498.75;-148.75;-61.25;98178305;-130.662;-50.874;995.276;1916.25;-35.0;-341.25
0.887329;98190180;;98190180;130.052;-470.066;901.458;603.75;-140.0;70.0;98189765;-130.418;-50.508;993.934;1776.25;-148.75;-253.75
0.898608;98201459;;98201459;130.54;-471.896;902.922;358.75;-210.0;17.5;98201046;-128.71;-52.704;991.128;1662.5;-183.75;-183.75
0.909981;98212832;;98212832;132.736;-467.626;898.53;183.75;-236.25;8.75;98212416;-129.076;-53.07;993.202;1592.5;-131.25;-262.5
0.921261;98224112;;98224112;131.516;-468.968;903.41;647.5;-192.5;-8.75;98223699;-127.246;-50.02;993.202;1715.0;-175.0;-280.0
0.932635;98235486;;98235486;127.978;-467.748;901.946;770.0;-201.25;-70.0;98235070;-127.734;-50.63;995.398;1732.5;113.75;-271.25
0.944077;98246928;;98246928;125.782;-462.624;896.456;192.5;-236.25;-8.75;98246514;-132.126;-51.118;993.568;1601.25;253.75;-323.75
0.955289;98258140;;98258140;123.708;-477.752;907.314;253.75;87.5;350.0;98257724;-137.616;-53.68;989.908;1531.25;-236.25;-253.75
0.966569;98269420;;98269420;127.978;-465.064;891.088;35.0;-350.0;-122.5;98269006;-132.37;-57.706;987.712;1356.25;-840.0;-271.25
0.978114;98280965;;98280965;128.588;-472.506;906.094;936.25;113.75;358.75;98280549;-129.198;-53.192;990.762;1916.25;-962.5;-350.0
0.989398;98292249;;98292249;130.662;-470.432;901.58;988.75;-411.25;-341.25;98291835;-124.562;-50.996;1001.254;2388.75;-1198.75;-367.5
1.001173;98304024;;98304024;134.2;-462.258;903.776;700.0;148.75;315.0;98303608;-122.732;-47.092;1000.156;1793.75;-385.0;-280.0
1.012573;98315424;;98315424;132.858;-476.898;899.262;-551.25;-201.25;148.75;98315010;-124.074;-49.166;995.154;1706.25;183.75;-376.25
1.024116;98326967;;98326967;133.102;-471.896;896.09;988.75;-105.0;61.25;98326551;-127.856;-49.898;991.25;1732.5;455.0;-411.25
1.035313;98338164;;98338164;127.734;-465.43;908.046;831.25;-140.0;-43.75;98337751;-128.222;-52.46;993.202;1767.5;595.0;-385.0
1.046766;98349617;;98349617;127.49;-472.506;898.774;87.5;-8.75;253.75;98349201;-132.98;-49.532;990.884;1260.0;358.75;-280.0
1.057791;98360642;;98360642;122.61;-470.432;907.558;175.0;-61.25;175.0;98360229;-135.786;-49.532;995.276;1452.5;-140.0;-297.5
1.069166;98372017;;98372017;128.1;-468.48;894.626;227.5;-183.75;-61.25;98371602;-130.662;-55.876;989.42;1627.5;-568.75;-332.5
1.080691;98383542;;98383542;124.684;-471.408;905.484;1076.25;-61.25;26.25;98383128;-131.882;-51.362;992.104;1881.25;-875.0;-315.0
1.091994;98394845;;98394845;131.394;-465.918;896.944;490.0;-227.5;-105.0;98394429;-130.418;-46.36;998.57;1986.25;-892.5;-306.25
1.103593;98406444;;98406444;128.1;-468.358;904.874;586.25;26.25;140.0;98406031;-128.588;-51.972;999.912;1715.0;-315.0;-306.25
1.11482;98417671;;98417671;132.98;-466.162;901.702;210.0;-227.5;-43.75;98417255;-128.344;-51.484;993.324;1697.5;78.75;-297.5
1.126171;98429022;;98429022;132.98;-468.724;895.602;341.25;-17.5;148.75;98428608;-130.296;-50.508;988.078;1671.25;402.5;-358.75
1.137389;98440240;;98440240;132.248;-469.578;901.092;708.75;-218.75;-105.0;98439824;-125.904;-52.582;993.69;1706.25;262.5;-332.5
1.148908;98451759;;98451759;130.54;-469.822;899.384;306.25;-78.75;122.5;98451346;-131.15;-47.946;995.886;1645.0;271.25;-315.0
1.160129;98462980;;98462980;123.098;-473.604;901.336;157.5;-17.5;140.0;98462565;-134.444;-50.142;991.494;1662.5;201.25;-332.5
1.171411;98474262;;98474262;126.514;-469.822;900.726;341.25;-183.75;35.0;98473848;-134.566;-52.948;990.64;1610.0;-236.25;-210.0
1.182784;98485635;;98485635;122.732;-464.82;901.092;831.25;-166.25;-61.25;98485219;-133.712;-51.118;989.664;1881.25;-673.75;-288.75
1.1943;98497151;;98497151;129.198;-463.844;900.238;385.0;-192.5;35.0;98496738;-132.004;-50.996;994.056;1706.25;-726.25;-297.5
1.205611;98508462;;98508462;130.174;-469.09;902.8;271.25;-70.0;192.5;98508046;-128.344;-49.654;1000.644;1671.25;-840.0;-358.75
1.217066;98519917;;98519917;131.638;-468.236;899.506;665.0;-148.75;8.75;98519503;-127.734;-50.386;998.57;1933.75;-490.0;-411.25
1.228351;98531202;;98531202;129.808;-470.066;898.286;542.5;-157.5;17.5;98530786;-127.246;-53.192;995.154;1977.5;70.0;-428.75
1.239547;98542398;;98542398;131.638;-475.068;899.262;402.5;-78.75;113.75;98541984;-128.222;-52.582;993.69;1916.25;52.5;-358.75
1.250745;98553596;;98553596;129.32;-472.14;902.678;735.0;-105.0;-8.75;98553181;-131.272;-50.508;995.52;1715.0;341.25;-323.75
1.262027;98564878;;98564878;130.296;-467.87;898.408;437.5;-183.75;43.75;98564464;-132.126;-50.264;992.592;1811.25;446.25;-350.0
1.273313;98576164;;98576164;128.832;-472.75;902.19;288.75;-140.0;87.5;98575748;-130.662;-51.85;990.64;1697.5;113.75;-358.75
1.284594;98587445;;98587445;129.93;-468.114;901.214;656.25;-166.25;-17.5;98587031;-132.248;-49.898;990.64;1662.5;-280.0;-306.25
1.296118;98598969;;98598969;131.15;-466.65;900.726;647.5;-183.75;-78.75;98598553;-125.66;-55.144;995.642;1855.0;-428.75;-201.25
1.30756;98610411;;98610411;128.1;-459.696;878.888;131.25;-332.5;-367.5;98609997;-114.558;-44.408;996.618;1968.75;245.0;-70.0
1.318947;98621798;;98621798;128.1;-479.948;924.76;2598.75;428.75;350.0;98621382;-132.98;-47.824;1004.914;2030.0;1977.5;-236.25
1.330473;98633324;;98633324;103.212;-466.284;924.15;1960.0;-533.75;-682.5;98632910;-149.694;-48.312;997.838;1995.0;1767.5;-218.75
1.342121;98644972;;98644972;125.782;-453.962;894.87;-866.25;-201.25;-35.0;98644557;-143.594;-55.388;986.98;1251.25;542.5;-192.5
1.353596;98656447;;98656447;120.414;-494.344;888.77;-2537.5;297.5;813.75;98656034;-142.618;-71.126;987.59;280.0;131.25;-113.75
1.364952;98667803;;98667803;106.872;-491.05;918.294;4016.25;96.25;-122.5;98667387;-142.252;-51.118;983.808;2922.5;-1400.0;-612.5
1.376474;98679325;;98679325;137.494;-442.982;901.092;3045.0;-1146.25;-1426.25;98678911;-120.902;-44.774;996.496;3018.75;-2940.0;-288.75
1.388396;98691247;;98691247;133.102;-464.21;896.334;-1925.0;288.75;945.0;98690832;-124.928;-35.502;996.496;2178.75;-2668.75;-341.25
1.399996;98702847;;98702847;134.688;-484.828;901.336;-455.0;253.75;393.75;98702433;-124.684;-47.458;1003.572;840.0;-1548.75;-472.5
1.411555;98714406;;98714406;135.542;-465.308;898.408;1741.25;-140.0;-236.25;98713990;-117.364;-55.632;997.35;2126.25;-175.0;-525.0
1.423207;98726058;;98726058;135.908;-473.36;897.798;26.25;-78.75;218.75;98725644;-122.732;-48.8;986.248;2905.0;866.25;-595.0
1.43432;98737171;;98737171;123.952;-474.214;911.218;735.0;43.75;140.0;98736755;-133.956;-47.702;997.716;1303.75;813.75;-507.5
1.445514;98748365;;98748365;125.416;-462.746;903.41;70.0;-35.0;122.5;98747952;-136.274;-52.216;1001.132;542.5;315.0;-236.25
1.456713;98759564;;98759564;125.172;-476.044;895.968;-1417.5;-35.0;446.25;98759148;-133.102;-59.292;985.394;1881.25;210.0;-420.0
1.468247;98771098;;98771098;120.902;-485.804;903.044;1863.75;-280.0;-253.75;98770684;-142.13;-53.802;989.298;2581.25;-490.0;-490.0
1.479916;98782767;;98782767;132.126;-455.06;903.288;2686.25;-271.25;-568.75;98782352;-130.296;-51.728;991.982;2178.75;-1400.0;-236.25
1.4916;98794451;;98794451;132.37;-450.424;906.948;-262.5;-148.75;175.0;98794037;-125.782;-43.798;993.08;1741.25;-1085.0;-262.5
1.503207;98806058;;98806058;132.492;-479.46;890.356;-1890.0;26.25;201.25;98805643;-123.342;-43.798;999.18;1102.5;-183.75;-306.25
1.514695;98817546;;98817546;133.59;-471.896;901.458;1566.25;0.0;-52.5;98817133;-123.952;-50.874;1001.01;1400.0;323.75;-271.25
1.52589;98828741;;98828741;128.222;-461.77;909.754;1347.5;-157.5;-166.25;98828325;-123.22;-53.314;993.446;2353.75;1137.5;-420.0
1.5376;98840451;;98840451;131.882;-463.112;897.92;-113.75;-297.5;-35.0;98840037;-129.076;-50.142;989.664;1907.5;1137.5;-411.25
1.549121;98851972;;98851972;122.366;-475.434;900.848;-61.25;113.75;306.25;98851556;-138.104;-51.972;994.666;945.0;437.5;-148.75
1.560261;98863112;;98863112;122.244;-473.482;905.118;1373.75;-87.5;26.25;98862698;-137.006;-57.096;994.91;1863.75;358.75;-315.0
1.571547;98874398;;98874398;118.584;-460.794;906.094;1277.5;-350.0;-157.5;98873982;-140.544;-51.484;988.2;2712.5;-26.25;-402.5
1.583166;98886017;;98886017;126.758;-468.48;899.994;131.25;-183.75;183.75;98885603;-140.056;-49.898;984.784;1968.75;-805.0;-350.0
1.594607;98897458;;98897458;128.344;-474.214;906.094;595.0;-43.75;52.5;98897042;-134.932;-51.362;991.616;962.5;-1732.5;-332.5
1.605828;98908679;;98908679;133.224;-467.626;896.822;183.75;-262.5;-78.75;98908265;-124.684;-50.508;999.18;2187.5;-1610.0;-358.75
1.617432;98920283;;98920283;135.786;-473.726;893.528;507.5;-192.5;61.25;98919867;-124.074;-49.41;997.228;2222.5;-726.25;-420.0
1.628744;98931595;;98931595;129.93;-466.284;905.972;1251.25;-43.75;61.25;98931181;-124.684;-46.848;996.618;1496.25;-131.25;-341.25
1.640116;98942967;;98942967;127.002;-463.478;899.628;-385.0;-113.75;166.25;98942552;-132.004;-50.264;999.424;1111.25;288.75;-245.0
1.651642;98954493;;98954493;128.466;-472.14;896.822;-735.0;-122.5;201.25;98954079;-129.686;-53.924;994.544;1470.0;717.5;-201.25
1.663087;98965938;;98965938;124.562;-474.092;896.09;708.75;-70.0;-35.0;98965522;-132.614;-50.142;993.812;1758.75;603.75;-350.0
1.674312;98977163;;98977163;133.59;-460.306;903.898;1566.25;-87.5;-35.0;98976749;-132.248;-50.386;997.35;2038.75;175.0;-376.25
1.685772;98988623;;98988623;130.296;-466.65;901.702;-52.5;-140.0;175.0;98988208;-130.418;-49.166;992.592;2170.0;-253.75;-367.5
1.697215;99000066;;99000066;126.514;-477.386;900.238;35.0;-52.5;253.75;98999652;-134.078;-50.63;989.054;1828.75;-297.5;-446.25
1.708424;99011275;;99011275;127.612;-473.482;898.164;883.75;-131.25;-131.25;99010859;-132.492;-54.412;994.91;1618.75;-822.5;-297.5
1.720042;99022893;;99022893;129.93;-468.358;904.142;656.25;-166.25;-17.5;99022480;-125.904;-52.216;993.934;2091.25;-288.75;-350.0
1.731514;99034365;;99034365;131.516;-466.894;900.604;341.25;-262.5;0.0;99033949;-129.686;-46.238;997.838;1811.25;236.25;-315.0
1.74262;99045471;;99045471;130.54;-467.504;900.36;113.75;-8.75;201.25;99045057;-131.76;-50.02;997.96;1251.25;262.5;-245.0
1.753819;99056670;;99056670;127.124;-474.702;903.532;70.0;-17.5;227.5;99056254;-131.882;-53.436;995.154;1303.75;490.0;-341.25
1.765014;99067865;;99067865;127.856;-469.7;897.92;866.25;-253.75;-52.5;99067451;-137.25;-54.9;991.372;2178.75;542.5;-376.25
1.776437;99079288;;99079288;122.732;-467.748;905.606;1172.5;-131.25;17.5;99078872;-135.298;-51.972;988.81;2126.25;-52.5;-367.5
1.787814;99090665;;99090665;125.294;-464.698;906.46;761.25;-148.75;-113.75;99090251;-137.86;-49.654;990.64;1592.5;-761.25;-306.25
1.799352;99102203;;99102203;127.368;-467.138;900.604;-140.0;-105.0;192.5;99101787;-131.394;-50.752;991.982;1373.75;-1198.75;-192.5
1.810998;99113849;;99113849;129.32;-473.97;896.578;428.75;-218.75;52.5;99113435;-127.734;-49.776;993.324;1662.5;-1496.25;-341.25
1.822389;99125240;;99125240;130.662;-465.552;902.678;1461.25;-70.0;-35.0;99124825;-127.612;-52.46;997.838;1846.25;-1338.75;-358.75
1.833991;99136842;;99136842;133.224;-465.918;903.288;770.0;-157.5;-17.5;99136429;-127.124;-51.972;998.57;2065.0;-1006.25;-411.25
1.845566;99148417;;99148417;129.93;-471.408;899.628;-122.5;-78.75;140.0;99148001;-125.904;-49.288;995.642;1785.0;-498.75;-428.75
1.856999;99159850;;99159850;129.198;-473.848;898.286;472.5;-43.75;43.75;99159437;-127.978;-51.85;994.91;1706.25;157.5;-411.25
1.86813;99170981;;99170981;131.516;-472.75;901.58;980.0;-105.0;-113.75;99170566;-128.222;-51.85;996.008;1933.75;481.25;-446.25
1.879649;99182500;;99182500;129.442;-466.04;902.556;656.25;-166.25;-35.0;99182086;-131.76;-47.214;990.762;1898.75;743.75;-358.75
1.891037;99193888;;99193888;127.124;-470.676;901.214;70.0;-70.0;96.25;99193473;-134.078;-50.996;987.956;1312.5;315.0;-253.75
1.902065;99204916;;99204916;128.344;-468.968;900.726;271.25;-131.25;17.5;99204502;-131.516;-53.924;991.982;1050.0;-358.75;-148.75
1.91344;99216291;;99216291;129.198;-466.894;900.36;586.25;-262.5;-140.0;99215875;-125.66;-50.386;995.52;2038.75;-463.75;-288.75
1.925037;99227888;;99227888;126.758;-465.552;898.408;918.75;-157.5;-35.0;99227474;-130.296;-45.872;995.886;2038.75;-358.75;-358.75
1.936525;99239376;;99239376;129.076;-464.576;903.654;533.75;-61.25;105.0;99238960;-128.344;-48.434;998.326;1671.25;-262.5;-323.75
1.947809;99250660;;99250660;127.612;-469.944;899.506;78.75;-105.0;122.5;99250246;-130.906;-50.508;994.91;1706.25;43.75;-341.25
1.959008;99261859;;99261859;126.88;-472.018;898.53;428.75;-52.5;113.75;99261443;-132.492;-52.704;991.738;1828.75;350.0;-358.75
1.97029;99273141;;99273141;124.928;-470.554;900.848;735.0;-131.25;-17.5;99272727;-133.102;-52.216;990.152;1750.0;245.0;-323.75
1.981745;99284596;;99284596;128.832;-469.334;903.288;595.0;-140.0;43.75;99284181;-132.126;-52.338;990.884;1697.5;-26.25;-288.75
1.992943;99295794;;99295794;130.906;-468.846;899.628;-70.0;-192.5;78.75;99295381;-130.54;-52.948;996.252;1531.25;-122.5;-227.5
2.004316;99307167;;99307167;128.588;-470.798;897.554;341.25;-122.5;105.0;99306751;-129.808;-50.02;996.252;1575.0;-227.5;-236.25
2.015827;99318678;;99318678;130.784;-466.406;901.824;962.5;-183.75;-148.75;99318264;-129.808;-50.142;994.056;1828.75;-288.75;-245.0
2.027383;99330234;;99330234;128.832;-464.332;899.628;236.25;-131.25;140.0;99329818;-132.126;-49.288;992.348;1802.5;-157.5;-306.25
2.038827;99341678;;99341678;129.808;-469.09;901.946;78.75;-70.0;140.0;99341264;-130.174;-49.41;994.178;1592.5;-332.5;-358.75
2.050057;99352908;;99352908;128.71;-469.578;897.432;481.25;-61.25;26.25;99352492;-131.394;-50.02;995.398;1505.0;-393.75;-341.25
2.061338;99364189;;99364189;131.882;-468.114;901.214;857.5;-96.25;26.25;99363775;-130.052;-51.85;997.35;1951.25;-271.25;-411.25
2.072624;99375475;;99375475;128.1;-466.772;902.556;665.0;-148.75;-8.75;99375059;-129.93;-50.874;992.592;2091.25;-201.25;-358.75
2.083993;99386844;;99386844;130.54;-470.066;900.604;577.5;-96.25;61.25;99386431;-130.54;-50.996;993.69;1706.25;-280.0;-210.0
2.095278;99398129;;99398129;129.076;-471.896;902.434;350.0;-78.75;131.25;99397713;-130.418;-50.508;994.91;1566.25;43.75;-341.25
2.106473;99409324;;99409324;128.588;-471.164;899.506;498.75;-122.5;-8.75;99408911;-129.076;-50.752;992.592;1723.75;96.25;-341.25
2.117673;99420524;;99420524;126.88;-467.748;900.848;577.5;-148.75;-35.0;99420108;-130.296;-49.654;993.69;1688.75;43.75;-315.0
2.129046;99431897;;99431897;126.514;-467.504;903.166;367.5;-70.0;61.25;99431483;-131.15;-50.508;993.812;1557.5;8.75;-245.0
2.139978;99442829;;99442829;129.076;-469.09;900.238;148.75;-175.0;26.25;99442413;-132.98;-51.728;995.642;1505.0;-262.5;-306.25
2.151348;99454199;;99454199;126.026;-470.31;899.872;393.75;-113.75;17.5;99453785;-132.248;-50.508;993.934;1793.75;-385.0;-341.25
2.16272;99465571;;99465571;129.076;-468.602;900.848;787.5;-183.75;-52.5;99465155;-132.858;-52.216;993.812;1828.75;-437.5;-280.0
2.174267;99477118;;99477118;127.856;-466.65;901.702;647.5;-166.25;-17.5;99476704;-130.662;-50.386;996.984;1837.5;-595.0;-288.75
2.185691;99488542;;99488542;127.368;-469.212;901.214;157.5;-140.0;113.75;99488126;-131.394;-50.142;994.788;1680.0;-428.75;-350.0
2.197188;99500039;;99500039;128.466;-471.652;900.97;568.75;-61.25;105.0;99499618;-129.442;-52.338;995.154;1610.0;-385.0;-288.75
2.208462;99511313;;99511313;129.442;-470.676;899.384;603.75;-192.5;26.25;99510897;-130.784;-50.63;994.178;1890.0;-498.75;-376.25
2.21983;99522681;;99522681;128.344;-467.992;901.336;481.25;-113.75;26.25;99522268;-126.88;-50.752;996.008;1846.25;-358.75;-332.5
2.231203;99534054;;99534054;129.686;-468.846;901.702;428.75;-175.0;78.75;99533638;-129.686;-49.898;994.544;1627.5;-358.75;-315.0
2.242571;99545422;;99545422;132.004;-469.578;900.726;498.75;-105.0;96.25;99545009;-127.856;-49.044;994.3;1715.0;-262.5;-253.75
2.253944;99556795;;99556795;126.148;-469.944;900.726;577.5;-105.0;70.0;99556379;-130.296;-51.24;994.788;1890.0;78.75;-367.5
2.265138;99567989;;99567989;127.856;-468.48;901.214;586.25;-105.0;35.0;99567576;-128.588;-51.972;992.226;1828.75;-35.0;-358.75
2.276424;99579275;;99579275;128.344;-467.626;899.994;525.0;-96.25;52.5;99578859;-130.052;-51.118;993.568;1741.25;-113.75;-323.75
2.287704;99590555;;99590555;127.612;-469.334;899.75;551.25;-105.0;43.75;99590142;-129.442;-49.776;994.178;1855.0;-175.0;-376.25
2.299078;99601929;;99601929;129.686;-469.09;901.702;612.5;-122.5;35.0;99601513;-129.076;-51.606;993.568;2003.75;-157.5;-385.0
2.310447;99613298;;99613298;127.612;-470.31;901.702;700.0;-166.25;26.25;99612884;-129.564;-48.068;993.934;1863.75;-61.25;-428.75
2.321732;99624583;;99624583;129.32;-468.114;901.458;446.25;-61.25;70.0;99624167;-128.466;-48.19;994.91;1706.25;-8.75;-288.75
2.332839;99635690;;99635690;130.784;-470.92;900.97;315.0;-122.5;52.5;99635276;-132.004;-50.874;994.3;1566.25;26.25;-306.25
2.344039;99646890;;99646890;128.1;-471.774;900.726;498.75;-122.5;70.0;99646474;-129.93;-50.508;993.568;1688.75;183.75;-297.5
2.35532;99658171;;99658171;128.1;-471.042;901.336;481.25;-148.75;52.5;99657758;-133.102;-52.704;991.982;1610.0;17.5;-306.25
2.366519;99669370;;99669370;128.71;-469.334;899.14;498.75;-148.75;26.25;99668954;-128.954;-51.484;993.08;1662.5;-183.75;-297.5
2.377888;99680739;;99680739;126.88;-467.626;901.458;446.25;-113.75;87.5;99680325;-131.028;-48.434;994.91;1828.75;-280.0;-350.0
2.38926;99692111;;99692111;130.174;-467.382;900.482;507.5;-131.25;-8.75;99691695;-132.004;-53.192;992.714;1601.25;-420.0;-297.5
2.400628;99703479;;99703479;128.466;-467.748;902.434;490.0;-157.5;113.75;99703066;-133.59;-50.02;993.568;1592.5;-595.0;-323.75
2.412171;99715022;;99715022;127.612;-468.846;900.604;376.25;-140.0;87.5;99714606;-129.93;-50.264;996.13;1715.0;-595.0;-306.25
2.423456;99726307;;99726307;130.174;-470.31;898.042;525.0;-96.25;8.75;99725893;-127.978;-48.312;996.984;1627.5;-481.25;-262.5
2.434652;99737503;;99737503;128.588;-467.992;900.97;551.25;-131.25;52.5;99737088;-129.198;-50.508;996.74;1671.25;-297.5;-306.25
2.446023;99748874;;99748874;128.588;-467.016;899.994;507.5;-87.5;35.0;99748460;-128.1;-51.362;993.934;1758.75;8.75;-323.75
2.457047;99759898;;99759898;129.686;-469.822;901.092;420.0;-131.25;61.25;99759482;-129.808;-50.264;994.056;1785.0;175.0;-297.5
2.46833;99771181;;99771181;128.466;-468.358;902.556;507.5;-131.25;26.25;99770767;-131.15;-50.386;993.08;1662.5;140.0;-323.75
2.479616;99782467;;99782467;127.368;-468.602;900.726;472.5;-87.5;26.25;99782051;-127.978;-50.63;994.544;1671.25;70.0;-323.75
2.490722;99793573;;99793573;127.002;-472.75;901.946;420.0;-105.0;35.0;99793160;-132.492;-50.874;993.08;1820.0;-52.5;-262.5
2.502009;99804860;;99804860;127.002;-468.48;900.482;586.25;-113.75;78.75;99804444;-131.15;-50.63;991.006;1828.75;-376.25;-341.25
2.513377;99816228;;99816228;127.002;-468.724;900.36;533.75;-148.75;61.25;99815815;-131.638;-50.142;992.836;1732.5;-586.25;-323.75
2.52475;99827601;;99827601;128.222;-471.286;899.75;595.0;-131.25;43.75;99827185;-132.126;-47.702;993.202;1706.25;-630.0;-288.75
2.536118;99838969;;99838969;128.954;-467.016;901.824;603.75;-140.0;78.75;99838555;-130.296;-49.288;992.592;1601.25;-612.5;-253.75
2.547491;99850342;;99850342;128.222;-468.236;899.628;183.75;-113.75;0.0;99849926;-128.954;-50.63;996.862;1408.75;-367.5;-271.25
2.558771;99861622;;99861622;128.1;-469.456;902.068;288.75;-78.75;157.5;99861208;-130.784;-52.46;998.814;1548.75;-148.75;-271.25
2.570145;99872996;;99872996;130.906;-473.726;899.506;577.5;-105.0;43.75;99872580;-130.906;-50.752;995.642;1846.25;105.0;-350.0
2.581426;99884277;;99884277;127.124;-469.944;903.532;778.75;-87.5;70.0;99883863;-130.296;-51.484;992.104;1925.0;87.5;-367.5
2.592537;99895388;;99895388;126.88;-468.724;900.36;516.25;-166.25;0.0;99894972;-133.834;-49.532;991.128;1776.25;-157.5;-367.5
2.603819;99906670;;99906670;128.71;-469.578;900.848;516.25;-140.0;17.5;99906256;-130.906;-46.238;993.08;1715.0;-332.5;-306.25
2.615192;99918043;;99918043;130.906;-468.846;900.726;638.75;-105.0;43.75;99917627;-130.784;-49.166;995.642;1688.75;-306.25;-323.75
2.626561;99929412;;99929412;130.296;-466.528;899.994;568.75;-113.75;61.25;99928998;-132.858;-51.728;991.25;1785.0;-306.25;-315.0
2.637933;99940784;;99940784;128.344;-469.334;901.336;393.75;-113.75;105.0;99940368;-131.394;-50.874;993.446;1653.75;-367.5;-315.0
2.649479;99952330;;99952330;131.394;-467.748;899.628;393.75;-166.25;35.0;99951916;-129.198;-50.752;996.984;1715.0;-341.25;-271.25
2.660761;99963612;;99963612;131.394;-470.066;899.994;472.5;-122.5;52.5;99963196;-129.93;-49.776;995.764;1741.25;-166.25;-288.75
2.672129;99974980;;99974980;128.222;-469.7;905.728;568.75;-70.0;87.5;99974566;-131.882;-47.458;993.568;1776.25;-17.5;-315.0
2.683327;99986178;;99986178;128.954;-467.87;901.824;463.75;-148.75;35.0;99985762;-128.954;-50.142;993.568;1645.0;26.25;-297.5
2.694523;99997374;;99997374;128.222;-470.066;899.262;166.25;-70.0;122.5;99996960;-130.906;-50.874;995.642;1601.25;166.25;-262.5
2.705808;100008659;;100008659;128.222;-471.286;900.238;481.25;-131.25;61.25;100008243;-130.784;-51.484;996.74;1732.5;78.75;-367.5
2.717229;100020080;;100020080;127.368;-467.626;904.02;936.25;-140.0;-43.75;100019666;-129.808;-49.776;994.056;1925.0;-87.5;-332.5
2.728797;100031648;;100031648;130.418;-464.454;898.896;402.5;-157.5;-35.0;100031232;-128.954;-48.922;989.664;1627.5;-306.25;-271.25
2.740438;100043289;;100043289;127.002;-473.97;901.214;411.25;-17.5;140.0;100042875;-131.638;-50.874;993.446;1618.75;-446.25;-350.0
2.75196;100054811;;100054811;127.856;-468.236;899.262;778.75;-148.75;-87.5;100054395;-130.296;-51.484;995.886;1793.75;-376.25;-315.0
2.763618;100066469;;100066469;128.344;-467.016;899.262;700.0;-140.0;61.25;100066055;-127.612;-49.654;993.202;2082.5;-271.25;-376.25
2.77514;100077991;;100077991;131.028;-471.042;901.58;323.75;-175.0;8.75;100077575;-131.15;-48.922;992.592;1688.75;-236.25;-341.25
2.786527;100089378;;100089378;128.832;-469.09;898.286;385.0;-78.75;122.5;100088965;-130.418;-51.484;994.666;1540.0;-78.75;-271.25
2.798046;100100897;;100100897;129.686;-468.602;901.092;341.25;-105.0;87.5;100100482;-128.588;-47.58;994.666;1715.0;8.75;-297.5
2.809345;100112196;;100112196;129.076;-469.334;899.506;525.0;-96.25;-26.25;100111783;-131.76;-48.068;993.324;1785.0;157.5;-297.5
2.820783;100123634;;100123634;128.832;-467.504;902.434;630.0;-122.5;-35.0;100123219;-131.882;-50.142;993.69;1715.0;43.75;-323.75
2.832231;100135082;;100135082;126.392;-467.626;901.336;262.5;-87.5;61.25;100134668;-126.758;-50.874;993.69;1671.25;-87.5;-280.0
2.843555;100146406;;100146406;129.442;-470.676;900.238;315.0;-122.5;61.25;100145990;-132.614;-49.166;996.374;1662.5;-35.0;-315.0
2.855096;100157947;;100157947;128.954;-469.334;899.506;717.5;-157.5;43.75;100157533;-127.246;-50.996;992.47;1890.0;-26.25;-341.25
2.866533;100169384;;100169384;129.198;-468.724;903.166;595.0;-78.75;105.0;100168969;-131.272;-51.362;995.154;1750.0;-35.0;-288.75
2.878009;100180860;;100180860;128.71;-468.968;901.336;358.75;-175.0;70.0;100180447;-131.272;-53.192;992.348;1688.75;-122.5;-315.0
2.88953;100192381;;100192381;125.782;-471.286;899.628;393.75;-131.25;17.5;100191965;-129.564;-50.63;995.398;1732.5;-192.5;-350.0
2.901093;100203944;;100203944;125.782;-469.578;901.58;770.0;-148.75;0.0;100203530;-132.492;-47.336;993.08;1863.75;-306.25;-253.75
2.912472;100215323;;100215323;127.246;-468.358;900.116;586.25;-157.5;43.75;100214907;-132.126;-50.874;992.714;1872.5;-262.5;-341.25
2.924094;100226945;;100226945;129.808;-469.212;899.506;210.0;-140.0;0.0;100226531;-128.954;-51.362;994.666;1522.5;-323.75;-210.0
2.935473;100238324;;100238324;127.368;-471.408;901.092;428.75;-122.5;-43.75;100237908;-129.076;-51.728;995.154;1645.0;-402.5;-306.25
2.947196;100250047;;100250047;129.564;-468.114;900.726;525.0;-148.75;8.75;100249627;-130.54;-55.022;995.032;1732.5;-253.75;-341.25
2.958561;100261412;;100261412;130.784;-467.992;898.774;420.0;-105.0;87.5;100260996;-128.466;-50.02;994.544;1776.25;-393.75;-358.75
2.970175;100273026;;100273026;128.588;-468.724;899.75;507.5;-105.0;26.25;100272612;-129.686;-49.166;994.544;1776.25;-507.5;-271.25
2.981702;100284553;;100284553;129.32;-467.87;898.408;525.0;-148.75;17.5;100284138;-128.222;-51.118;996.862;1837.5;-323.75;-341.25
2.993261;100296112;;100296112;129.442;-471.042;901.092;533.75;-140.0;35.0;100295698;-128.71;-49.41;994.788;1863.75;-183.75;-315.0
3.004798;100307649;;100307649;131.882;-470.554;901.214;665.0;-175.0;0.0;100307234;-130.784;-49.776;993.446;1828.75;-140.0;-332.5
3.016192;100319043;;100319043;128.588;-465.918;900.482;393.75;-61.25;87.5;100318629;-130.906;-51.24;995.52;1627.5;-26.25;-341.25
3.027564;100330415;;100330415;128.344;-471.164;898.408;306.25;-96.25;105.0;100329999;-129.93;-51.24;994.3;1575.0;-43.75;-323.75
3.039098;100341949;;100341949;128.1;-469.944;901.824;516.25;-105.0;17.5;100341535;-133.102;-52.338;993.202;1767.5;-140.0;-341.25
3.050622;100353473;;100353473;129.076;-468.48;900.97;533.75;-140.0;26.25;100353057;-129.198;-52.46;994.91;1732.5;-236.25;-341.25
3.06218;100365031;;100365031;128.344;-469.334;900.116;472.5;-148.75;70.0;100364617;-127.49;-49.654;994.056;1811.25;-306.25;-297.5
3.073712;100376563;;100376563;128.1;-466.65;901.702;516.25;-192.5;-17.5;100376148;-130.54;-49.532;995.276;1881.25;-218.75;-341.25
3.085349;100388200;;100388200;126.636;-468.358;901.092;638.75;-140.0;52.5;100387786;-128.832;-51.606;996.252;1706.25;-78.75;-367.5
3.096805;100399656;;100399656;129.686;-470.31;899.994;385.0;-157.5;-8.75;100399235;-130.296;-50.752;993.202;1732.5;-87.5;-323.75
3.108276;100411127;;100411127;129.076;-471.408;898.774;525.0;-52.5;26.25;100410714;-129.686;-50.874;995.276;1680.0;-78.75;-385.0
3.119569;100422420;;100422420;130.296;-468.114;901.946;516.25;-131.25;0.0;100422004;-129.076;-48.8;993.568;1767.5;-140.0;-358.75
3.131024;100433875;;100433875;127.856;-470.798;900.238;621.25;-131.25;-26.25;100433461;-132.126;-50.142;993.08;1828.75;-288.75;-306.25
3.142744;100445595;;100445595;128.954;-470.066;902.434;446.25;-148.75;52.5;100445179;-128.832;-49.654;992.592;1828.75;-280.0;-253.75
3.154262;100457113;;100457113;127.368;-467.87;902.8;358.75;-87.5;78.75;100456700;-132.492;-50.996;994.422;1636.25;-227.5;-350.0
3.165658;100468509;;100468509;127.612;-466.406;900.97;490.0;-122.5;52.5;100468093;-129.564;-52.338;995.886;1636.25;-253.75;-288.75
3.177277;100480128;;100480128;129.564;-469.7;901.702;376.25;-131.25;61.25;100479714;-131.638;-50.63;995.886;1715.0;-166.25;-280.0
3.188797;100491648;;100491648;130.052;-469.212;900.36;568.75;-87.5;35.0;100491232;-128.832;-53.07;997.228;1697.5;-166.25;-297.5
3.200201;100503052;;100503052;129.686;-469.456;900.604;647.5;-148.75;17.5;100502638;-128.588;-49.166;995.154;1767.5;-236.25;-350.0
3.211797;100514648;;100514648;127.978;-468.724;902.434;411.25;-113.75;105.0;100514232;-130.784;-50.508;992.836;1828.75;-227.5;-385.0
3.223442;100526293;;100526293;128.222;-469.334;901.458;490.0;-148.75;0.0;100525880;-130.784;-50.874;994.056;1627.5;-113.75;-315.0
3.234835;100537686;;100537686;130.296;-469.212;901.58;568.75;-70.0;8.75;100537270;-131.15;-48.068;992.958;1636.25;-253.75;-253.75
3.246202;100549053;;100549053;129.32;-467.748;900.604;385.0;-140.0;26.25;100548639;-133.346;-51.728;993.324;1688.75;-87.5;-280.0
3.257744;100560595;;100560595;127.124;-470.188;900.482;402.5;-96.25;70.0;100560180;-133.102;-52.704;996.862;1662.5;-113.75;-288.75
3.269118;100571969;;100571969;126.758;-468.602;901.092;481.25;-148.75;35.0;100571555;-131.272;-50.02;995.032;1750.0;-245.0;-297.5
3.280745;100583596;;100583596;129.93;-468.358;900.482;533.75;-148.75;96.25;100583180;-130.418;-50.874;994.422;1793.75;-183.75;-367.5
3.292269;100595120;;100595120;128.954;-469.7;902.068;533.75;-148.75;0.0;100594706;-130.296;-51.362;993.812;1793.75;-192.5;-315.0
3.303665;100606516;;100606516;128.222;-470.798;901.702;463.75;-140.0;61.25;100606100;-129.076;-52.094;995.154;1732.5;-105.0;-315.0
3.315278;100618129;;100618129;128.588;-466.04;902.434;551.25;-87.5;70.0;100617715;-131.882;-52.216;993.08;1846.25;-105.0;-341.25
3.326666;100629517;;100629517;130.174;-469.456;902.312;516.25;-192.5;43.75;100629102;-130.052;-51.118;992.958;1715.0;-131.25;-358.75
3.338279;100641130;;100641130;129.808;-471.774;902.19;455.0;-140.0;43.75;100640716;-130.296;-48.678;993.812;1671.25;-218.75;-332.5
3.349832;100652683;;100652683;130.418;-468.968;900.238;507.5;-105.0;43.75;100652267;-130.174;-52.216;995.398;1802.5;-210.0;-288.75
3.36136;100664211;;100664211;128.954;-469.944;900.36;490.0;-148.75;26.25;100663798;-131.272;-52.216;991.86;1723.75;-148.75;-350.0
3.372931;100675782;;100675782;129.93;-469.7;900.482;376.25;-113.75;52.5;100675366;-129.442;-48.312;994.178;1715.0;-218.75;-332.5
3.384451;100687302;;100687302;127.246;-468.236;900.848;525.0;-131.25;35.0;100686888;-130.052;-50.996;996.496;1723.75;-192.5;-367.5
3.396017;100698868;;100698868;126.636;-466.772;898.896;577.5;-87.5;35.0;100698452;-132.614;-50.996;994.544;1741.25;-122.5;-306.25
3.407385;100710236;;100710236;127.734;-469.456;902.312;481.25;-113.75;122.5;100709822;-132.004;-52.094;992.836;1776.25;-157.5;-367.5
3.419104;100721955;;100721955;128.832;-470.798;899.994;507.5;-105.0;52.5;100721540;-129.564;-51.606;993.446;1688.75;-236.25;-297.5
3.430616;100733467;;100733467;128.832;-460.916;889.38;245.0;-122.5;0.0;100733053;-127.856;-49.41;994.056;1767.5;-280.0;-315.0
3.442019;100744870;;100744870;127.246;-450.668;861.442;-708.75;96.25;131.25;100744454;-116.388;-53.192;996.618;1207.5;603.75;-341.25
3.453529;100756380;;100756380;133.956;-508.984;976.122;5425.0;761.25;560.0;100755966;-135.298;-51.24;1009.794;3640.0;1662.5;-752.5
3.465268;100768119;;100768119;104.92;-449.082;930.616;3955.0;-1802.5;-2266.25;100767704;-148.84;-33.306;994.422;3832.5;52.5;-210.0
3.477058;100779909;;100779909;157.624;-415.776;844.484;-4646.25;-1190.0;-516.25;100779495;-115.778;-58.316;981.124;-787.5;-1636.25;315.0
3.48906;100791911;;100791911;93.94;-526.064;930.128;-3010.0;1802.5;2091.25;100791495;-147.254;-58.072;996.008;1365.0;148.75;-787.5
3.500762;100803613;;100803613;134.688;-495.564;881.694;2642.5;-1242.5;-1811.25;100803200;-136.762;-56.852;988.322;2668.75;-743.75;-280.0
3.512754;100815605;;100815605;134.2;-440.42;918.904;5967.5;-682.5;-603.75;100815190;-118.95;-51.728;995.032;2493.75;-665.0;-183.75
3.524539;100827390;;100827390;132.248;-467.26;904.874;-1303.75;-262.5;166.25;100826976;-129.564;-38.43;1001.254;1732.5;-901.25;-315.0
3.536451;100839302;;100839302;133.712;-462.38;888.16;630.0;122.5;166.25;100838886;-129.686;-48.312;1000.766;288.75;-551.25;-87.5
3.547931;100850782;;100850782;128.954;-471.774;901.824;-358.75;43.75;367.5;100850368;-122.122;-57.584;994.422;1837.5;402.5;-507.5
3.559364;100862215;;100862215;131.516;-487.39;886.086;1207.5;-70.0;-78.75;100861800;-130.418;-48.8;990.152;3561.25;1120.0;-743.75
3.570967;100873818;;100873818;127.124;-461.16;911.218;3255.0;-17.5;-402.5;100873404;-135.054;-49.044;987.59;1137.5;175.0;-271.25
3.582627;100885478;;100885478;130.54;-463.722;916.464;-113.75;61.25;245.0;100885062;-129.564;-58.316;996.13;1496.25;227.5;-262.5
3.59406;100896911;;100896911;127.49;-480.68;886.452;-621.25;-297.5;-52.5;100896497;-131.882;-50.874;990.396;1653.75;-516.25;-227.5
3.605808;100908659;;100908659;131.516;-477.752;898.286;1680.0;-26.25;96.25;100908243;-129.32;-54.046;994.178;1610.0;-542.5;-236.25
3.617324;100920175;;100920175;120.536;-471.286;915.854;2388.75;-192.5;-262.5;100919761;-130.052;-47.214;997.594;2730.0;-402.5;-446.25
3.629153;100932004;;100932004;138.592;-446.032;888.648;-971.25;-306.25;87.5;100931588;-126.148;-45.14;989.298;1487.5;-455.0;-140.0
3.640751;100943602;;100943602;129.93;-486.658;900.116;-1557.5;525.0;1050.0;100943188;-129.93;-48.068;994.91;612.5;507.5;-350.0
3.652417;100955268;;100955268;121.878;-488.61;905.362;1907.5;-96.25;-166.25;100954852;-130.906;-52.826;997.96;1986.25;78.75;-402.5
3.663936;100966787;;100966787;133.346;-445.3;903.532;1023.75;-253.75;-70.0;100966373;-131.028;-52.094;987.834;2607.5;472.5;-446.25
3.67558;100978431;;100978431;125.294;-476.166;901.458;-1006.25;-35.0;446.25;100978015;-135.054;-46.482;990.03;1986.25;-8.75;-253.75
3.6871;100989951;;100989951;130.052;-472.628;898.774;962.5;-113.75;-70.0;100989537;-129.808;-51.606;995.032;980.0;-945.0;-8.75
3.698496;101001347;;101001347;128.954;-460.184;899.872;1146.25;-52.5;70.0;101000931;-127.734;-51.484;1000.278;1636.25;507.5;-455.0
3.71001;101012861;;101012861;127.124;-477.752;902.8;980.0;-210.0;-70.0;101012447;-136.518;-44.286;993.446;2721.25;770.0;-472.5
3.721582;101024433;;101024433;131.394;-461.16;900.116;1085.0;-201.25;-157.5;101024017;-132.004;-48.678;991.982;1312.5;315.0;-183.75
3.733278;101036129;;101036129;128.1;-464.942;900.97;43.75;61.25;315.0;101035715;-127.612;-52.216;994.788;1058.75;288.75;-183.75
3.744505;101047356;;101047356;127.612;-476.41;900.482;918.75;-236.25;-175.0;101046940;-129.564;-55.876;997.106;2003.75;735.0;-332.5
3.7562;101059051;;101059051;128.1;-470.066;897.432;1680.0;-210.0;-227.5;101058637;-131.394;-53.192;990.03;2275.0;551.25;-253.75
3.76794;101070791;;101070791;130.54;-467.992;904.874;1347.5;0.0;35.0;101070375;-135.664;-49.898;989.542;1601.25;175.0;-297.5
3.779135;101081986;;101081986;129.442;-467.016;904.02;472.5;-140.0;0.0;101081572;-132.492;-50.02;989.786;1470.0;-131.25;-183.75
3.790595;101093446;;101093446;127.612;-467.748;895.846;87.5;-201.25;105.0;101093031;-129.564;-50.874;992.714;1592.5;-183.75;-271.25
3.802226;101105077;;101105077;127.246;-467.016;900.238;805.0;-35.0;70.0;101104663;-131.882;-45.384;999.18;1636.25;-280.0;-262.5
3.813597;101116448;;101116448;131.882;-464.21;902.8;840.0;-78.75;-61.25;101116032;-132.37;-50.508;995.398;1872.5;-210.0;-315.0
3.825197;101128048;;101128048;131.76;-468.968;898.896;420.0;-148.75;26.25;101127634;-128.832;-50.386;994.056;1925.0;192.5;-428.75
3.836668;101139519;;101139519;129.686;-470.554;900.97;743.75;-17.5;105.0;101139103;-133.102;-52.704;995.886;1811.25;253.75;-253.75
3.84814;101150991;;101150991;126.392;-472.14;903.532;1181.25;-96.25;8.75;101150577;-133.224;-51.606;997.472;1697.5;245.0;-175.0
3.859425;101162276;;101162276;143.228;-474.336;895.846;463.75;-420.0;-166.25;101161861;-131.516;-49.166;985.882;1575.0;472.5;-105.0
3.871145;101173996;;101173996;134.81;-474.824;909.632;1400.0;-175.0;131.25;101173583;-130.296;-45.994;990.762;1820.0;612.5;-43.75
3.882682;101185533;;101185533;133.468;-460.672;899.262;1461.25;-507.5;-332.5;101185117;-126.392;-48.8;991.372;1916.25;472.5;87.5
3.894232;101197083;;101197083;130.052;-464.21;899.872;638.75;-113.75;245.0;101196669;-138.714;-43.92;995.52;1365.0;726.25;-122.5
3.905756;101208607;;101208607;127.856;-472.994;897.554;-280.0;-192.5;157.5;101208191;-134.688;-53.07;995.52;1566.25;402.5;-227.5
3.917373;101220224;;101220224;128.588;-474.336;898.896;1303.75;-70.0;-105.0;101219810;-133.956;-54.656;992.226;1916.25;472.5;-227.5
3.929026;101231877;;101231877;126.88;-467.382;907.924;1408.75;-192.5;-157.5;101231461;-135.42;-51.972;992.226;1776.25;507.5;-148.75
3.940754;101243605;;101243605;129.198;-465.308;900.238;472.5;-122.5;87.5;101243192;-129.32;-50.264;995.52;1706.25;61.25;-140.0
3.952108;101254959;;101254959;131.028;-471.652;900.726;341.25;-70.0;157.5;101254543;-129.93;-51.728;998.326;1592.5;297.5;-148.75
3.963577;101266428;;101266428;127.49;-473.726;905.728;560.0;-17.5;105.0;101266015;-133.224;-48.434;994.178;1610.0;542.5;-280.0
3.975022;101277873;;101277873;127.734;-466.772;905.484;1067.5;-105.0;87.5;101277458;-136.64;-49.654;992.714;1916.25;262.5;-341.25
3.986579;101289430;;101289430;131.638;-466.04;893.772;87.5;-218.75;43.75;101289016;-129.564;-51.484;991.982;1802.5;-131.25;-253.75
3.997953;101300804;;101300804;128.954;-476.776;904.63;621.25;70.0;332.5;101300388;-135.42;-49.41;994.422;1575.0;35.0;-332.5
4.009235;101312086;;101312086;127.978;-468.358;905.728;1023.75;-236.25;-157.5;101311672;-135.176;-51.85;996.008;1758.75;-148.75;-280.0
4.021106;101323957;;101323957;130.052;-465.064;899.506;455.0;-122.5;105.0;101323541;-131.028;-50.508;996.496;1916.25;-148.75;-288.75
4.032751;101335602;;101335602;131.272;-470.798;899.506;245.0;-70.0;148.75;101335189;-132.98;-50.508;992.47;1758.75;192.5;-332.5
4.044201;101347052;;101347052;130.052;-471.896;903.044;717.5;8.75;78.75;101346637;-137.006;-51.484;991.616;1461.25;236.25;-358.75
4.055321;101358172;;101358172;127.002;-466.04;902.19;560.0;-113.75;0.0;101357759;-132.858;-53.802;992.47;1750.0;52.5;-341.25
4.06661;101369461;;101369461;130.662;-467.748;900.36;525.0;-218.75;-8.75;101369045;-133.468;-48.678;992.836;1837.5;-78.75;-341.25
4.078142;101380993;;101380993;125.904;-464.576;900.726;595.0;-52.5;70.0;101380579;-135.298;-48.678;994.666;1610.0;-61.25;-288.75
4.089437;101392288;;101392288;129.442;-464.454;900.97;472.5;-35.0;192.5;101391873;-129.93;-49.166;994.91;1610.0;-70.0;-332.5
4.100979;101403830;;101403830;127.246;-468.846;903.532;638.75;-105.0;-8.75;101403416;-134.932;-49.166;995.886;2108.75;78.75;-332.5
4.112331;101415182;;101415182;128.832;-464.332;900.726;875.0;-148.75;-35.0;101414766;-134.932;-50.508;996.496;1820.0;175.0;-350.0
4.123938;101426789;;101426789;128.344;-464.82;904.752;770.0;-87.5;35.0;101426375;-134.078;-51.362;993.568;1697.5;78.75;-245.0
4.135092;101437943;;101437943;128.954;-465.918;900.97;297.5;-148.75;17.5;101437528;-131.15;-51.728;994.91;1583.75;35.0;-315.0
4.146544;101449395;;101449395;130.784;-466.65;900.116;665.0;-17.5;245.0;101448981;-133.346;-55.876;994.422;1706.25;218.75;-332.5
4.157974;101460825;;101460825;127.734;-463.722;907.68;1347.5;-140.0;-35.0;101460409;-135.664;-46.116;994.788;1863.75;70.0;-315.0
4.169544;101472395;;101472395;125.66;-458.598;898.286;595.0;-332.5;-43.75;101471981;-133.468;-50.02;995.886;1968.75;385.0;-253.75
4.181061;101483912;;101483912;128.222;-471.652;908.778;148.75;61.25;297.5;101483496;-137.128;-49.044;994.91;1496.25;630.0;-376.25
4.192376;101495227;;101495227;131.516;-474.58;901.214;157.5;-201.25;43.75;101494813;-134.566;-54.778;992.592;1312.5;175.0;-323.75
4.203939;101506790;;101506790;130.662;-471.652;904.996;857.5;-166.25;105.0;101506374;-135.664;-52.338;993.324;1898.75;245.0;-376.25
4.215452;101518303;;101518303;127.856;-467.992;902.434;560.0;-323.75;-43.75;101517890;-139.324;-52.582;993.812;1793.75;358.75;-367.5
4.226983;101529834;;101529834;127.002;-469.7;902.312;472.5;-35.0;87.5;101529418;-136.884;-50.752;996.496;1706.25;-245.0;-315.0
4.238379;101541230;;101541230;128.588;-470.066;897.554;8.75;-166.25;131.25;101540816;-133.59;-51.606;990.884;1706.25;-393.75;-306.25
4.249838;101552689;;101552689;125.538;-471.53;906.46;831.25;-113.75;-52.5;101552273;-132.004;-50.874;995.032;1890.0;-245.0;-280.0
4.261538;101564389;;101564389;127.734;-462.014;896.578;560.0;-280.0;-122.5;101563975;-136.884;-49.166;994.788;1907.5;-332.5;-288.75
4.273279;101576130;;101576130;132.614;-465.552;902.19;472.5;-70.0;175.0;101575715;-129.442;-49.898;996.984;1653.75;-446.25;-148.75
4.284808;101587659;;101587659;133.102;-470.676;903.166;752.5;-157.5;-17.5;101587245;-136.518;-49.166;994.788;2126.25;166.25;-306.25
4.296333;101599184;;101599184;129.686;-459.574;904.996;971.25;-175.0;-87.5;101598769;-136.884;-51.728;995.764;1793.75;105.0;-385.0
4.307939;101610790;;101610790;129.198;-470.31;900.116;35.0;-78.75;113.75;101610377;-131.516;-51.118;994.788;1662.5;-332.5;-280.0
4.319275;101622126;;101622126;130.418;-470.188;900.604;708.75;-122.5;-52.5;101621711;-136.396;-52.46;993.69;1601.25;192.5;-385.0
4.33094;101633791;;101633791;128.1;-468.236;904.874;813.75;-175.0;35.0;101633377;-137.616;-49.898;990.762;2030.0;87.5;-306.25
4.342247;101645098;;101645098;129.808;-464.576;904.02;463.75;-157.5;-43.75;101644682;-135.176;-51.118;992.958;1645.0;-315.0;-306.25
4.35394;101656791;;101656791;128.588;-468.724;900.726;26.25;-52.5;70.0;101656377;-134.81;-50.142;992.592;1548.75;-192.5;-350.0
4.36519;101668041;;101668041;128.1;-472.384;900.238;437.5;-70.0;61.25;101667625;-132.98;-50.264;993.812;1653.75;-455.0;-280.0
4.376646;101679497;;101679497;127.612;-468.236;905.85;726.25;-96.25;26.25;101679083;-133.224;-50.508;990.396;2021.25;-437.5;-376.25
4.388105;101690956;;101690956;129.198;-466.04;902.068;560.0;-113.75;-26.25;101690540;-131.272;-47.946;995.032;1863.75;-358.75;-262.5
4.399811;101702662;;101702662;130.784;-464.21;900.604;332.5;-113.75;26.25;101702248;-134.2;-45.994;997.594;1575.0;-218.75;-315.0
4.411362;101714213;;101714213;128.954;-466.772;901.092;402.5;-35.0;122.5;101713798;-134.932;-49.044;993.324;1741.25;8.75;-358.75
4.422633;101725484;;101725484;129.076;-467.748;900.97;455.0;-192.5;-8.75;101725070;-135.664;-51.118;990.03;1776.25;-113.75;-323.75
4.434191;101737042;;101737042;127.002;-469.7;902.678;490.0;-183.75;61.25;101736626;-133.834;-49.044;993.568;1776.25;-175.0;-376.25
4.445724;101748575;;101748575;132.126;-467.138;902.19;638.75;-122.5;-43.75;101748162;-134.2;-49.288;998.326;1863.75;-227.5;-323.75
4.457364;101760215;;101760215;130.54;-467.138;901.092;516.25;-148.75;96.25;101759799;-134.322;-49.654;993.446;1750.0;-140.0;-341.25
4.468939;101771790;;101771790;129.32;-467.87;901.702;420.0;-96.25;35.0;101771377;-135.298;-52.094;989.542;1680.0;-113.75;-367.5
4.480284;101783135;;101783135;127.978;-468.114;901.702;595.0;-157.5;35.0;101782719;-133.956;-50.264;996.618;1802.5;-262.5;-280.0
4.49194;101794791;;101794791;130.418;-466.528;900.97;603.75;-166.25;-52.5;101794377;-134.566;-49.41;994.3;1933.75;-122.5;-376.25
4.503508;101806359;;101806359;128.832;-465.43;899.994;402.5;-70.0;140.0;101805943;-133.346;-46.726;992.47;1680.0;-8.75;-350.0
4.51494;101817791;;101817791;125.538;-467.016;903.044;341.25;-113.75;122.5;101817377;-133.224;-49.288;991.128;1671.25;-166.25;-341.25
4.526543;101829394;;101829394;129.808;-468.236;902.19;525.0;-175.0;-17.5;101828978;-135.542;-50.508;994.178;1741.25;-113.75;-323.75
4.538156;101841007;;101841007;130.662;-465.674;903.044;621.25;-175.0;-35.0;101840594;-134.322;-48.678;997.838;1907.5;8.75;-306.25
4.549551;101852402;;101852402;129.93;-466.406;902.068;761.25;-96.25;43.75;101851987;-135.786;-48.678;993.446;1828.75;26.25;-262.5
4.560742;101863593;;101863593;128.832;-463.356;903.166;393.75;-105.0;70.0;101863179;-134.688;-49.288;992.592;1793.75;-43.75;-367.5
4.572279;101875130;;101875130;127.612;-469.456;901.092;358.75;-78.75;61.25;101874714;-136.884;-51.118;994.178;1575.0;-43.75;-288.75
4.58357;101886421;;101886421;128.222;-468.114;902.678;542.5;-210.0;105.0;101886007;-135.176;-51.362;993.202;1706.25;-140.0;-341.25
4.595293;101898144;;101898144;130.662;-467.992;899.994;638.75;-105.0;0.0;101897729;-135.664;-51.362;995.032;1732.5;-157.5;-323.75
4.606658;101909509;;101909509;129.686;-467.138;902.922;420.0;-140.0;-17.5;101909095;-135.542;-50.752;992.958;1767.5;-253.75;-288.75
4.618366;101921217;;101921217;128.588;-467.626;900.97;463.75;-131.25;17.5;101920802;-135.664;-51.24;993.934;1688.75;-280.0;-262.5
4.629941;101932792;;101932792;130.662;-466.65;902.19;612.5;-131.25;-8.75;101932378;-134.2;-48.8;996.252;1688.75;-210.0;-297.5
4.641457;101944308;;101944308;129.198;-467.382;898.774;516.25;-166.25;52.5;101943892;-132.98;-49.654;994.178;1890.0;-96.25;-315.0
4.652942;101955793;;101955793;127.368;-466.65;902.068;507.5;-131.25;43.75;101955379;-133.834;-49.776;992.226;1566.25;-8.75;-262.5
4.664293;101967144;;101967144;128.832;-467.504;900.604;288.75;-131.25;26.25;101966728;-135.664;-51.362;992.348;1496.25;-113.75;-236.25
4.675799;101978650;;101978650;129.442;-469.09;900.848;393.75;-122.5;17.5;101978236;-135.908;-49.166;994.91;1723.75;-148.75;-367.5
4.687366;101990217;;101990217;129.686;-468.846;899.872;525.0;-175.0;52.5;101989801;-133.224;-51.118;996.618;1855.0;-183.75;-332.5
4.698942;102001793;;102001793;125.904;-464.82;903.898;612.5;-148.75;-43.75;102001379;-133.712;-50.264;995.032;1732.5;-140.0;-332.5
4.710545;102013396;;102013396;130.662;-464.942;902.678;280.0;-70.0;78.75;102012980;-134.688;-50.63;996.374;1688.75;-105.0;-358.75
4.721924;102024775;;102024775;128.466;-466.894;901.58;446.25;-122.5;96.25;102024361;-135.786;-49.532;993.324;1750.0;-122.5;-323.75
4.733552;102036403;;102036403;127.002;-467.626;901.336;577.5;-113.75;0.0;102035987;-134.078;-52.46;993.568;1767.5;-78.75;-341.25
4.744838;102047689;;102047689;130.418;-467.26;900.482;568.75;-113.75;8.75;102047276;-135.664;-46.116;992.592;1846.25;-201.25;-350.0
4.756298;102059149;;102059149;129.198;-468.724;901.336;420.0;-175.0;26.25;102058733;-134.932;-50.386;994.422;1732.5;-245.0;-341.25
4.767943;102070794;;102070794;130.662;-468.236;903.044;586.25;-166.25;17.5;102070380;-134.2;-49.654;994.422;1811.25;-262.5;-376.25
4.779459;102082310;;102082310;128.222;-467.504;902.19;621.25;-113.75;61.25;102081894;-135.176;-47.58;993.934;1828.75;-236.25;-306.25
4.790986;102093837;;102093837;127.49;-467.626;901.214;490.0;-105.0;35.0;102093423;-136.64;-48.434;991.372;1767.5;-122.5;-341.25
4.802553;102105404;;102105404;127.124;-466.65;901.702;315.0;-140.0;35.0;102104988;-133.712;-53.314;993.69;1391.25;-140.0;-306.25
4.814107;102116958;;102116958;128.588;-466.284;901.458;402.5;-122.5;-17.5;102116544;-137.494;-48.922;993.568;1557.5;-192.5;-280.0
4.825718;102128569;;102128569;128.832;-467.87;901.214;533.75;-131.25;17.5;102128153;-133.956;-52.094;994.422;1715.0;-140.0;-315.0
4.83725;102140101;;102140101;131.516;-466.772;901.214;551.25;-140.0;-8.75;102139687;-131.76;-50.386;994.422;1706.25;-192.5;-350.0
4.848803;102151654;;102151654;127.612;-466.04;902.678;472.5;-87.5;35.0;102151238;-135.176;-51.85;996.13;1802.5;-253.75;-358.75
4.860191;102163042;;102163042;129.32;-466.162;901.946;516.25;-131.25;17.5;102162629;-134.322;-50.386;992.47;1793.75;-175.0;-385.0
4.871803;102174654;;102174654;127.49;-467.87;900.97;498.75;-96.25;61.25;102174239;-135.42;-51.24;994.91;1767.5;-140.0;-306.25
4.883193;102186044;;102186044;129.442;-468.114;901.336;577.5;-122.5;52.5;102185630;-134.444;-47.214;991.86;1750.0;-253.75;-306.25
4.894804;102197655;;102197655;128.222;-468.602;902.8;402.5;-105.0;35.0;102197239;-133.956;-50.264;994.422;1758.75;-315.0;-323.75
4.906366;102209217;;102209217;128.588;-467.626;902.8;385.0;-183.75;70.0;102208803;-134.078;-50.63;993.69;1653.75;-315.0;-262.5
4.917946;102220797;;102220797;128.466;-466.65;898.53;463.75;-148.75;-35.0;102220381;-133.834;-48.8;993.568;1680.0;-385.0;-280.0
4.929545;102232396;;102232396;129.076;-462.014;901.702;525.0;-148.75;70.0;102231983;-133.468;-50.508;993.568;1855.0;-218.75;-323.75
4.941075;102243926;;102243926;127.124;-464.21;901.092;385.0;-157.5;17.5;102243510;-133.956;-50.02;994.056;1706.25;-122.5;-306.25
4.95263;102255481;;102255481;130.906;-466.772;901.702;385.0;-78.75;113.75;102255068;-132.858;-49.898;993.324;1776.25;-166.25;-367.5
4.964161;102267012;;102267012;130.418;-467.26;902.678;481.25;-87.5;52.5;102266597;-135.298;-51.85;994.666;1750.0;-43.75;-341.25
4.975458;102278309;;102278309;128.222;-469.456;901.702;568.75;-148.75;70.0;102277895;-136.884;-49.288;991.006;1741.25;-122.5;-253.75
4.987072;102289923;;102289923;130.662;-467.992;901.092;516.25;-87.5;78.75;102289507;-134.566;-50.264;993.568;1715.0;-376.25;-332.5
4.998459;102301310;;102301310;128.832;-466.772;902.312;647.5;-148.75;8.75;102300896;-135.298;-47.702;993.812;1793.75;-463.75;-253.75
5.009918;102312769;;102312769;128.832;-464.942;902.434;647.5;-140.0;52.5;102312353;-133.834;-48.678;994.422;1872.5;-376.25;-288.75
5.021544;102324395;;102324395;130.296;-465.918;900.238;455.0;-157.5;105.0;102323982;-134.81;-47.702;996.13;1811.25;-280.0;-341.25
5.033163;102336014;;102336014;137.128;-469.578;900.116;157.5;-26.25;288.75;102335599;-127.734;-53.924;997.96;1487.5;-8.75;-367.5
5.044549;102347400;;102347400;131.76;-464.942;909.632;1233.75;-245.0;-35.0;102346986;-129.076;-43.066;995.642;2187.5;52.5;-420.0
5.05608;102358931;;102358931;132.98;-468.846;893.04;428.75;-140.0;-43.75;102358515;-132.614;-48.312;1000.278;1846.25;420.0;-315.0
5.067688;102370539;;102370539;128.344;-476.288;910.73;105.0;323.75;358.75;102370126;-143.472;-45.262;991.616;1715.0;770.0;-385.0
5.079164;102382015;;102382015;129.808;-470.798;890.966;-498.75;-253.75;35.0;102381599;-128.954;-56.242;988.2;1198.75;148.75;-262.5
5.090719;102393570;;102393570;128.1;-472.872;909.51;1015.0;-210.0;-113.75;102393156;-134.932;-47.214;990.152;2292.5;525.0;-315.0
5.102418;102405269;;102405269;130.296;-470.92;899.018;761.25;-350.0;-262.5;102404853;-138.714;-49.898;993.69;2003.75;472.5;-358.75
5.114075;102416926;;102416926;132.37;-465.43;904.142;577.5;-78.75;122.5;102416512;-139.812;-48.8;992.958;1478.75;-87.5;-297.5
5.125512;102428363;;102428363;128.71;-475.922;898.408;-621.25;-166.25;253.75;102427948;-133.956;-48.678;992.836;1557.5;-393.75;-192.5
5.137242;102440093;;102440093;125.904;-467.26;911.34;1128.75;-175.0;0.0;102439680;-139.202;-51.606;993.69;2003.75;-227.5;-315.0
5.148776;102451627;;102451627;131.394;-457.744;895.602;551.25;-341.25;-245.0;102451211;-135.542;-50.142;993.934;1968.75;-673.75;-332.5
5.160507;102463358;;102463358;132.37;-463.844;897.798;140.0;-35.0;280.0;102462944;-129.076;-50.874;993.324;1426.25;-743.75;-306.25
5.172031;102474882;;102474882;128.832;-473.848;904.386;936.25;-61.25;-26.25;102474467;-135.42;-44.896;996.74;1732.5;8.75;-315.0
5.183327;102486178;;102486178;130.662;-456.036;903.41;1076.25;-201.25;-122.5;102485764;-133.102;-49.044;995.764;2030.0;-253.75;-306.25
5.195123;102497974;;102497974;129.686;-467.26;899.872;-166.25;-113.75;288.75;102497558;-135.054;-49.288;993.934;1898.75;166.25;-393.75
5.206765;102509616;;102509616;130.662;-470.554;903.776;840.0;61.25;122.5;102509202;-135.298;-52.338;993.324;1347.5;210.0;-245.0
5.218057;102520908;;102520908;126.392;-469.334;907.68;586.25;-78.75;52.5;102520492;-138.592;-56.364;989.542;1942.5;96.25;-358.75
5.229339;102532190;;102532190;132.004;-469.822;902.068;498.75;-218.75;-52.5;102531776;-134.932;-50.386;989.786;1750.0;-350.0;-306.25
5.241028;102543879;;102543879;127.49;-466.894;897.798;402.5;-175.0;70.0;102543463;-135.664;-49.776;997.594;1688.75;-472.5;-280.0
5.25259;102555441;;102555441;128.222;-464.82;902.922;656.25;26.25;113.75;102555027;-133.834;-47.824;994.788;1505.0;-507.5;-315.0
5.263973;102566824;;102566824;127.49;-466.65;905.728;402.5;-166.25;96.25;102566408;-134.2;-50.508;993.812;1933.75;-280.0;-332.5
5.275598;102578449;;102578449;131.638;-468.236;898.408;752.5;-166.25;35.0;102578035;-134.322;-45.018;994.3;1785.0;-201.25;-332.5
5.287121;102589972;;102589972;127.734;-465.918;900.116;315.0;-87.5;52.5;102589557;-134.322;-48.068;999.058;1653.75;52.5;-315.0
5.298342;102601193;;102601193;127.612;-471.408;900.97;280.0;-61.25;148.75;102600779;-135.542;-49.166;990.518;1636.25;166.25;-332.5
5.30986;102612711;;102612711;129.076;-468.602;902.434;420.0;-113.75;-17.5;102612296;-134.078;-52.704;991.738;1811.25;-26.25;-376.25
5.321414;102624265;;102624265;128.466;-470.676;903.654;630.0;-140.0;70.0;102623851;-137.006;-49.654;993.812;1793.75;-87.5;-350.0
5.332861;102635712;;102635712;128.466;-466.04;900.238;551.25;-227.5;-87.5;102635296;-134.688;-50.996;994.544;1863.75;-183.75;-306.25
5.34451;102647361;;102647361;128.832;-467.382;903.41;332.5;-26.25;96.25;102646947;-134.566;-49.654;992.348;1662.5;-148.75;-280.0
5.35589;102658741;;102658741;128.344;-470.432;903.288;350.0;-78.75;0.0;102658326;-137.006;-53.436;993.446;1513.75;-332.5;-332.5
5.367264;102670115;;102670115;128.222;-464.454;903.044;612.5;-192.5;8.75;102669701;-136.152;-48.312;992.836;1758.75;-428.75;-350.0
5.378718;102681569;;102681569;129.198;-464.82;899.628;358.75;-218.75;35.0;102681153;-134.688;-50.386;994.666;1837.5;-437.5;-271.25
5.390328;102693179;;102693179;129.076;-466.894;903.776;525.0;-17.5;52.5;102692765;-137.982;-48.678;994.788;1653.75;-358.75;-297.5
5.401719;102704570;;102704570;128.222;-468.724;902.8;446.25;-122.5;96.25;102704154;-136.274;-49.166;992.958;1837.5;-428.75;-350.0
5.413328;102716179;;102716179;130.052;-464.454;902.068;568.75;-122.5;52.5;102715765;-132.98;-48.8;994.3;1942.5;-280.0;-306.25
5.424951;102727802;;102727802;129.686;-468.114;900.116;463.75;-131.25;17.5;102727386;-134.81;-47.702;994.666;1741.25;-8.75;-350.0
5.436255;102739106;;102739106;128.1;-467.26;901.824;770.0;-78.75;43.75;102738693;-135.176;-48.312;992.592;1688.75;-26.25;-341.25
5.447548;102750399;;102750399;128.1;-469.334;901.946;61.25;-131.25;96.25;102749983;-132.858;-50.874;992.348;1540.0;157.5;-306.25
5.458916;102761767;;102761767;130.052;-470.31;901.336;542.5;-78.75;17.5;102761354;-133.102;-51.484;994.056;1671.25;70.0;-367.5
5.470202;102773053;;102773053;128.466;-466.528;902.8;682.5;-175.0;8.75;102772637;-135.42;-49.654;994.3;1846.25;26.25;-341.25
5.481484;102784335;;102784335;128.1;-466.528;904.02;603.75;-148.75;52.5;102783921;-136.396;-47.824;996.618;1741.25;-8.75;-420.0
5.492952;102795803;;102795803;127.734;-469.456;903.41;376.25;-96.25;61.25;102795387;-134.444;-51.118;991.128;1767.5;-113.75;-358.75
5.504311;102807162;;102807162;129.076;-467.992;901.946;586.25;-70.0;43.75;102806748;-136.64;-47.946;991.738;1697.5;-253.75;-376.25
5.51577;102818621;;102818621;128.222;-467.016;902.19;481.25;-140.0;-8.75;102818205;-138.104;-49.166;993.812;1776.25;-306.25;-350.0
5.527373;102830224;;102830224;128.954;-469.212;901.092;455.0;-175.0;8.75;102829810;-134.444;-50.996;995.764;1767.5;-271.25;-306.25
5.538771;102841622;;102841622;128.71;-465.552;900.726;507.5;-61.25;78.75;102841207;-138.348;-49.41;993.202;1610.0;-341.25;-288.75
5.550226;102853077;;102853077;129.93;-466.284;901.458;376.25;-61.25;131.25;102852664;-134.078;-50.508;993.934;1828.75;-367.5;-227.5
5.561863;102864714;;102864714;129.076;-467.382;902.19;560.0;-175.0;26.25;102864298;-133.956;-48.922;995.886;1802.5;-297.5;-262.5
5.573373;102876224;;102876224;129.442;-466.65;902.434;577.5;-70.0;105.0;102875810;-133.224;-47.458;994.3;1793.75;-140.0;-315.0
5.584953;102887804;;102887804;130.784;-466.65;902.556;533.75;-122.5;61.25;102887388;-136.762;-50.752;992.714;1618.75;17.5;-376.25
5.596291;102899142;;102899142;125.782;-469.456;899.262;315.0;-113.75;96.25;102898729;-137.25;-50.142;990.64;1645.0;-113.75;-280.0
5.607854;102910705;;102910705;130.296;-464.698;900.482;490.0;-105.0;96.25;102910289;-135.664;-50.508;994.788;1741.25;-218.75;-332.5
5.619372;102922223;;102922223;130.052;-467.626;901.946;603.75;-96.25;78.75;102921810;-136.884;-51.85;996.74;1828.75;-105.0;-350.0
5.630776;102933627;;102933627;130.662;-465.552;902.312;551.25;-131.25;61.25;102933211;-136.03;-46.36;993.69;1846.25;-253.75;-297.5
5.642387;102945238;;102945238;130.54;-465.552;902.434;350.0;-122.5;61.25;102944824;-134.2;-47.458;991.494;1688.75;-262.5;-315.0
5.653954;102956805;;102956805;128.1;-468.236;901.946;568.75;-105.0;-26.25;102956389;-136.152;-51.362;995.032;1601.25;-70.0;-315.0
5.66547;102968321;;102968321;128.466;-466.162;902.556;446.25;-122.5;-17.5;102967908;-136.762;-48.8;994.056;1680.0;-87.5;-376.25
5.677037;102979888;;102979888;129.808;-465.308;902.8;393.75;-96.25;52.5;102979473;-133.346;-51.484;992.836;1671.25;-192.5;-280.0
5.688407;102991258;;102991258;128.71;-465.796;900.726;472.5;-166.25;113.75;102990844;-134.688;-47.946;994.788;1627.5;-262.5;-271.25
5.700126;103002977;;103002977;128.344;-465.186;900.482;551.25;-157.5;-17.5;103002562;-136.762;-49.288;995.276;1750.0;-288.75;-262.5
5.711738;103014589;;103014589;131.028;-464.82;901.336;516.25;-87.5;-8.75;103014175;-136.152;-50.874;994.788;1811.25;-306.25;-332.5
5.723128;103025979;;103025979;130.052;-466.406;901.58;498.75;-113.75;105.0;103025563;-136.396;-50.02;994.422;1688.75;-201.25;-280.0
5.734811;103037662;;103037662;129.198;-469.09;903.654;437.5;-113.75;35.0;103037248;-135.786;-51.24;995.032;1715.0;-192.5;-350.0
5.746376;103049227;;103049227;126.27;-469.456;902.434;507.5;-131.25;61.25;103048811;-135.298;-50.386;993.202;1662.5;-105.0;-332.5
5.757953;103060804;;103060804;130.052;-470.066;900.604;472.5;-105.0;61.25;103060390;-138.104;-51.362;993.324;1811.25;-157.5;-297.5
5.769468;103072319;;103072319;128.71;-468.846;900.97;472.5;-131.25;26.25;103071903;-135.054;-51.606;992.226;1627.5;-253.75;-315.0
5.780987;103083838;;103083838;127.856;-467.016;903.044;551.25;-78.75;35.0;103083425;-137.616;-49.532;995.764;1811.25;-297.5;-306.25
5.792392;103095243;;103095243;130.052;-466.162;903.166;525.0;-113.75;-96.25;103094827;-134.688;-50.874;995.642;1662.5;-288.75;-306.25
5.804075;103106926;;103106926;129.32;-466.04;901.824;376.25;-148.75;-8.75;103106512;-134.688;-50.142;992.592;1662.5;-306.25;-341.25
5.81564;103118491;;103118491;131.516;-467.992;902.678;472.5;-78.75;-8.75;103118076;-132.736;-49.044;995.886;1557.5;-236.25;-341.25
5.827022;103129873;;103129873;129.442;-465.43;901.824;481.25;-78.75;61.25;103129459;-134.688;-49.898;995.398;1732.5;-61.25;-253.75
5.838394;103141245;;103141245;121.268;-456.036;890.844;393.75;-96.25;43.75;103140829;-129.32;-45.384;989.176;1627.5;43.75;-271.25
5.849262;103152113;;;;;;;;;103152113;-141.764;-49.532;997.472;2065.0;350.0;-385.0
