timestamp_s;timestamp_us;emg_raw;imu1_timestamp_us;imu1_ax;imu1_ay;imu1_az;imu1_gx;imu1_gy;imu1_gz;imu2_timestamp_us;imu2_ax;imu2_ay;imu2_az;imu2_gx;imu2_gy;imu2_gz
0.000426;12354570;;12354570;133.346;-472.872;900.116;577.5;-8.75;52.5;12354144;-130.647;-51.908;994.48;1674.99;-278.138;-313.213
0.011557;12365701;;12365701;129.564;-473.848;900.116;183.75;-140.0;105.0;12365273;-130.758;-51.924;994.465;1674.802;-256.356;-312.427
0.023085;12377229;;12377229;125.782;-464.82;900.36;778.75;-201.25;-26.25;12376807;-130.863;-51.877;994.628;1677.25;-262.351;-307.306
0.034535;12388679;;12388679;129.076;-471.53;896.822;183.75;-96.25;105.0;12388251;-130.981;-51.913;994.685;1680.012;-264.546;-306.815
0.045838;12399982;;12399982;127.246;-471.164;903.532;770.0;-78.75;61.25;12399560;-131.008;-52.038;994.592;1683.949;-274.943;-307.225
0.057127;12411271;;12411271;127.734;-466.894;900.604;612.5;-210.0;-87.5;12410842;-131.112;-51.937;994.517;1690.314;-287.884;-306.301
0.068654;12422798;;12422798;132.614;-470.188;899.14;577.5;-113.75;87.5;12422376;-130.907;-51.938;994.658;1702.923;-302.802;-305.423
0.079956;12434100;;12434100;131.76;-472.994;899.628;630.0;-96.25;35.0;12433671;-130.645;-51.91;994.646;1711.402;-290.725;-309.402
0.091232;12445376;;12445376;132.98;-473.36;903.654;577.5;-35.0;96.25;12444954;-130.475;-51.87;994.355;1718.582;-272.688;-315.37
0.102521;12456665;;12456665;128.832;-468.724;899.872;210.0;-192.5;17.5;12456237;-130.264;-51.875;994.267;1708.341;-262.116;-316.664
0.113887;12468031;;12468031;127.978;-474.092;900.36;551.25;-35.0;78.75;12467609;-130.327;-51.917;994.323;1699.924;-246.386;-319.205
0.125175;12479319;;12479319;130.052;-470.554;900.116;831.25;-113.75;-61.25;12478891;-130.423;-51.974;994.352;1703.74;-222.254;-322.933
0.136698;12490842;;12490842;129.076;-466.772;902.068;411.25;-78.75;113.75;12490420;-130.563;-52.072;994.216;1700.365;-217.704;-322.536
0.148004;12502148;;12502148;127.734;-469.578;900.482;-17.5;-122.5;96.25;12501720;-130.58;-52.103;994.098;1683.597;-227.381;-320.409
0.159368;12513512;;12513512;126.392;-470.676;902.678;726.25;-166.25;17.5;12513090;-130.706;-52.085;994.181;1682.98;-240.074;-321.014
0.170745;12524889;;12524889;128.1;-466.772;900.848;735.0;-122.5;-52.5;12524461;-130.741;-52.183;994.138;1698.143;-249.071;-321.151
0.182258;12536402;;12536402;130.052;-467.26;901.336;428.75;-183.75;26.25;12535980;-130.657;-52.16;994.165;1698.986;-265.055;-319.093
0.193573;12547717;;12547717;129.808;-469.212;898.042;271.25;-87.5;43.75;12547288;-130.572;-51.968;994.263;1689.287;-276.302;-318.888
0.204849;12558993;;12558993;128.588;-472.75;902.8;647.5;-35.0;61.25;12558571;-130.455;-52.12;994.448;1690.572;-266.424;-322.632
0.216139;12570283;;12570283;132.004;-470.066;900.97;656.25;-157.5;17.5;12569854;-130.441;-52.162;994.27;1700.106;-249.603;-321.812
0.227504;12581648;;12581648;130.174;-470.554;901.58;358.75;-61.25;122.5;12581226;-130.458;-52.17;994.308;1703.476;-234.935;-322.347
0.23888;12593024;;12593024;127.734;-472.506;900.482;122.5;-105.0;131.25;12592596;-130.541;-52.319;994.405;1691.365;-216.626;-322.854
0.250388;12604532;;12604532;127.978;-470.676;899.994;656.25;-96.25;8.75;12604110;-130.682;-52.418;994.284;1695.609;-211.482;-324.212
0.261532;12615676;;12615676;128.344;-470.676;899.872;621.25;-157.5;-17.5;12615248;-130.864;-52.499;994.205;1700.953;-211.408;-323.751
0.273052;12627196;;12627196;128.222;-467.992;902.19;560.0;-131.25;-8.75;12626774;-130.957;-52.412;994.222;1700.781;-228.4;-319.814
0.284362;12638506;;12638506;130.174;-471.042;899.018;472.5;-96.25;52.5;12638078;-131.04;-52.219;994.287;1700.179;-241.043;-318.26
0.295638;12649782;;12649782;128.71;-472.262;899.262;498.75;-131.25;87.5;12649360;-131.1;-52.225;994.306;1706.17;-243.866;-318.097
0.307016;12661160;;12661160;128.466;-470.188;900.726;577.5;-87.5;52.5;12660732;-130.895;-52.224;994.22;1707.049;-249.61;-318.38
0.318292;12672436;;12672436;130.906;-473.848;899.872;542.5;-157.5;-35.0;12672014;-130.841;-52.273;994.285;1711.822;-245.879;-316.461
0.329844;12683988;;12683988;126.758;-471.652;899.75;490.0;-78.75;-17.5;12683560;-130.802;-52.319;994.451;1715.043;-233.148;-315.513
0.341121;12695265;;12695265;128.71;-469.822;898.774;507.5;-105.0;105.0;12694843;-130.74;-52.344;994.443;1723.354;-223.241;-317.237
0.352667;12706811;;12706811;129.442;-470.432;901.458;612.5;-131.25;-8.75;12706383;-130.73;-52.441;994.241;1729.498;-214.266;-317.125
0.363949;12718093;;12718093;132.614;-469.578;900.97;411.25;-148.75;0.0;12717671;-130.653;-52.418;994.097;1729.648;-209.678;-314.394
0.375237;12729381;;12729381;128.466;-470.798;900.97;472.5;-78.75;-17.5;12728953;-130.733;-52.463;993.986;1726.729;-212.756;-314.862
0.386603;12740747;;12740747;129.442;-470.188;899.262;306.25;-140.0;35.0;12740324;-130.839;-52.518;993.959;1716.517;-218.306;-313.119
0.397979;12752123;;12752123;127.612;-467.016;898.408;490.0;-70.0;52.5;12751695;-130.879;-52.423;994.049;1716.004;-224.016;-312.775
0.409256;12763400;;12763400;130.296;-469.09;899.262;603.75;-122.5;-8.75;12762977;-130.813;-52.37;994.11;1719.016;-225.502;-312.887
0.420633;12774777;;12774777;130.174;-469.334;901.336;595.0;-166.25;26.25;12774349;-130.757;-52.35;994.205;1730.628;-217.29;-319.117
0.431997;12786141;;12786141;130.052;-471.042;899.994;446.25;-70.0;70.0;12785719;-130.746;-52.313;994.234;1732.471;-205.988;-321.099
0.443286;12797430;;12797430;129.198;-470.188;901.336;446.25;-122.5;52.5;12797002;-130.797;-52.223;994.256;1732.91;-188.688;-319.919
0.454651;12808795;;12808795;129.442;-472.384;901.092;551.25;-140.0;113.75;12808373;-130.735;-52.204;994.313;1730.702;-170.941;-320.111
0.466189;12820333;;12820333;129.564;-471.286;901.336;358.75;-166.25;61.25;12819905;-130.768;-52.168;994.251;1728.605;-161.957;-320.293
0.477479;12831623;;12831623;128.1;-473.604;902.312;507.5;-105.0;70.0;12831201;-130.647;-52.14;994.113;1727.925;-162.172;-317.403
0.488856;12843000;;12843000;131.394;-472.506;900.238;621.25;-113.75;-35.0;12842571;-130.648;-52.132;994.135;1725.091;-164.563;-317.283
0.500396;12854540;;12854540;128.71;-468.846;901.58;437.5;-35.0;61.25;12854118;-130.642;-52.124;994.119;1722.399;-168.585;-319.356
0.511595;12865739;;12865739;130.54;-471.042;900.36;481.25;-148.75;26.25;12865311;-130.777;-52.086;994.158;1716.779;-175.468;-319.138
0.522961;12877105;;12877105;131.15;-470.31;899.994;498.75;-166.25;43.75;12876682;-130.717;-52.171;994.202;1712.315;-176.32;-318.494
0.534337;12888481;;12888481;127.368;-469.578;898.774;402.5;-122.5;-8.75;12888053;-130.598;-52.174;994.317;1712.887;-170.129;-317.444
0.545701;12899845;;12899845;127.246;-469.456;904.996;647.5;-26.25;175.0;12899423;-130.65;-52.127;994.377;1712.555;-153.747;-317.322
0.557078;12911222;;12911222;130.296;-471.286;900.36;525.0;-175.0;-61.25;12910794;-130.785;-52.192;994.282;1716.177;-140.372;-320.268
0.568612;12922756;;12922756;128.71;-469.334;901.458;595.0;-131.25;87.5;12922334;-130.815;-52.255;994.112;1717.868;-138.604;-323.068
0.579906;12934050;;12934050;128.466;-471.652;901.092;385.0;-131.25;-52.5;12933621;-130.82;-52.131;994.066;1720.787;-138.674;-323.102
0.591445;12945589;;12945589;129.686;-469.944;899.628;673.75;-70.0;52.5;12945167;-130.861;-52.19;994.072;1720.061;-143.552;-323.134
0.602645;12956789;;12956789;131.272;-471.652;899.14;297.5;-157.5;35.0;12956361;-130.924;-52.197;994.23;1725.495;-145.125;-323.602
0.614011;12968155;;12968155;129.93;-469.944;900.238;542.5;-26.25;70.0;12967732;-130.96;-52.265;994.276;1719.283;-150.994;-323.61
0.625299;12979443;;12979443;128.954;-472.14;902.922;481.25;-113.75;-8.75;12979015;-130.969;-52.281;994.271;1718.194;-156.569;-322.304
0.636665;12990809;;12990809;130.54;-467.382;899.628;560.0;-87.5;35.0;12990386;-131.027;-52.284;994.291;1715.846;-167.553;-323.252
0.647953;13002097;;13002097;130.174;-470.432;898.408;315.0;-148.75;26.25;13001669;-131.119;-52.201;994.297;1708.367;-170.988;-323.276
0.659318;13013462;;13013462;128.222;-470.798;899.872;630.0;-52.5;105.0;13013040;-131.126;-52.239;994.273;1708.261;-173.813;-321.55
0.670695;13024839;;13024839;128.222;-469.7;900.238;568.75;-52.5;0.0;13024411;-131.134;-52.201;994.335;1711.66;-178.248;-323.41
0.681883;13036027;;13036027;131.394;-469.578;902.556;577.5;-61.25;8.75;13035605;-131.116;-52.177;994.321;1717.952;-177.648;-323.427
0.693086;13047230;;13047230;130.296;-470.066;900.604;428.75;-183.75;87.5;13046802;-131.167;-52.191;994.278;1723.492;-177.953;-323.443
0.704453;13058597;;13058597;129.564;-473.238;902.312;568.75;-35.0;78.75;13058175;-131.013;-52.144;994.224;1723.943;-177.805;-325.209
0.715741;13069885;;13069885;131.15;-471.408;902.068;446.25;-148.75;-26.25;13069457;-131.026;-52.245;994.136;1723.495;-182.915;-322.073
0.727265;13081409;;13081409;130.784;-473.116;899.994;533.75;-96.25;78.75;13080987;-131.002;-52.286;994.157;1718.696;-190.394;-318.22
0.738482;13092626;;13092626;129.076;-470.554;899.872;533.75;-113.75;-26.25;13092198;-130.912;-52.277;994.152;1712.386;-197.5;-316.309
0.750057;13104201;;13104201;132.248;-471.042;898.896;411.25;-87.5;52.5;13103779;-130.857;-52.231;994.281;1709.891;-201.625;-316.681
0.761223;13115367;;13115367;129.93;-471.774;899.262;507.5;-78.75;0.0;13114938;-130.725;-52.139;994.331;1710.147;-204.231;-317.472
0.772412;13126556;;13126556;130.174;-473.726;901.824;551.25;-70.0;157.5;13126134;-130.777;-52.155;994.329;1713.015;-197.957;-317.785
0.783791;13137935;;13137935;130.296;-471.164;900.482;490.0;-122.5;-35.0;13137507;-130.771;-52.17;994.279;1713.114;-188.059;-316.771
0.795307;13149451;;13149451;128.1;-471.774;899.384;463.75;-70.0;61.25;13149029;-130.741;-52.239;994.231;1711.896;-183.031;-314.495
0.806531;13160675;;13160675;128.832;-472.872;901.092;481.25;-166.25;96.25;13160247;-130.731;-52.202;994.192;1709.863;-176.504;-316.27
0.817896;13172040;;13172040;131.272;-469.822;902.434;603.75;-96.25;96.25;13171618;-130.697;-52.135;994.222;1707.933;-174.679;-320.144
0.829185;13183329;;13183329;128.344;-473.482;900.36;420.0;-148.75;-8.75;13182901;-130.799;-52.151;994.195;1709.161;-174.258;-320.325
0.84055;13194694;;13194694;129.686;-472.75;901.458;428.75;-140.0;61.25;13194272;-130.841;-52.228;994.164;1707.266;-173.42;-316.558
0.851927;13206071;;13206071;128.466;-472.018;899.75;402.5;-148.75;-26.25;13205643;-130.826;-52.252;994.03;1699.34;-176.999;-317.355
0.863447;13217591;;13217591;126.88;-469.944;900.36;595.0;-113.75;-8.75;13217168;-130.842;-52.311;994.074;1700.56;-182.586;-316.8
0.874755;13228899;;13228899;130.174;-469.212;900.36;428.75;-113.75;61.25;13228470;-130.827;-52.172;994.037;1699.095;-192.27;-314.96
0.886119;13240263;;13240263;129.442;-469.212;900.116;420.0;-113.75;87.5;13239840;-130.709;-52.205;994.007;1691.14;-200.156;-315.4
0.897495;13251639;;13251639;129.076;-471.286;899.994;516.25;-157.5;17.5;13251211;-130.725;-52.156;994.077;1698.458;-203.711;-315.817
0.908859;13263003;;13263003;128.954;-470.92;900.36;665.0;-113.75;-8.75;13262581;-130.74;-52.08;994.064;1705.41;-204.463;-316.214
0.920236;13274380;;13274380;129.686;-470.554;900.97;437.5;-61.25;8.75;13273952;-130.712;-52.014;994.014;1710.265;-204.302;-317.466
0.931424;13285568;;13285568;128.344;-468.724;900.97;490.0;-43.75;70.0;13285146;-130.74;-52.103;993.919;1710.501;-205.462;-316.905
0.942715;13296859;;13296859;131.15;-473.238;899.506;490.0;-157.5;17.5;13296431;-130.705;-52.17;993.889;1713.351;-209.626;-315.06
0.95408;13308224;;13308224;131.15;-471.652;901.214;603.75;-122.5;26.25;13307802;-130.88;-52.129;993.904;1717.371;-212.708;-313.307
0.965457;13319601;;13319601;130.906;-471.652;901.58;498.75;-157.5;43.75;13319173;-130.839;-52.079;993.972;1717.253;-220.01;-312.516
0.976821;13330965;;13330965;129.564;-469.578;902.19;472.5;-70.0;26.25;13330543;-130.714;-52.012;994.05;1715.828;-226.072;-313.078
0.98811;13342254;;13342254;128.71;-470.188;899.506;376.25;-113.75;70.0;13341826;-130.614;-52.139;994.068;1715.786;-222.206;-312.737
0.999475;13353619;;13353619;127.002;-469.212;902.068;542.5;-78.75;52.5;13353197;-130.58;-52.069;994.153;1716.622;-221.595;-315.912
1.010764;13364908;;13364908;127.246;-471.774;899.384;490.0;-87.5;8.75;13364480;-130.639;-52.119;994.16;1715.666;-221.016;-314.992
1.021953;13376097;;13376097;129.686;-469.822;901.214;507.5;-105.0;8.75;13375675;-130.774;-52.063;994.161;1714.758;-221.777;-311.93
1.033244;13387388;;13387388;127.246;-468.724;900.238;542.5;-105.0;35.0;13386960;-130.768;-52.034;994.223;1715.207;-224.251;-312.958
1.04461;13398754;;13398754;129.076;-469.944;901.946;577.5;-122.5;96.25;13398331;-130.8;-52.068;994.257;1721.759;-230.976;-313.935
1.055993;13410137;;13410137;131.028;-470.676;900.238;568.75;-96.25;-8.75;13409709;-130.781;-52.081;994.278;1722.296;-235.615;-312.238
1.067262;13421406;;13421406;129.564;-472.018;901.58;568.75;-113.75;78.75;13420984;-130.616;-52.1;994.328;1725.431;-236.521;-314.126
1.07864;13432784;;13432784;130.662;-471.408;901.702;350.0;-87.5;61.25;13432356;-130.551;-52.197;994.314;1722.285;-227.32;-315.483
1.089917;13444061;;13444061;130.54;-471.042;901.092;411.25;-122.5;78.75;13443638;-130.545;-52.07;994.143;1721.921;-221.204;-315.021
1.101294;13455438;;13455438;128.588;-472.872;898.652;490.0;-122.5;70.0;13455010;-130.666;-52.078;994.083;1722.449;-218.894;-314.582
1.112658;13466802;;13466802;129.442;-470.798;899.14;472.5;-70.0;35.0;13466380;-130.654;-52.164;994.167;1715.952;-214.949;-314.166
1.123947;13478091;;13478091;128.954;-471.286;897.798;411.25;-122.5;43.75;13477663;-130.642;-52.081;994.29;1714.592;-216.014;-316.395
1.135313;13489457;;13489457;129.076;-469.578;901.458;586.25;-78.75;17.5;13489034;-130.667;-51.984;994.248;1716.362;-214.839;-315.888
1.146601;13500745;;13500745;129.808;-468.724;901.824;560.0;-113.75;43.75;13500317;-130.679;-51.996;994.257;1720.232;-211.534;-314.968
1.157966;13512110;;13512110;127.49;-468.358;900.97;516.25;-96.25;52.5;13511688;-130.672;-51.891;994.301;1717.345;-209.708;-315.845
1.169255;13523399;;13523399;129.076;-470.188;902.434;481.25;-87.5;35.0;13522971;-130.696;-51.87;994.295;1717.228;-204.91;-315.365
1.180533;13534677;;13534677;128.466;-469.334;898.896;481.25;-105.0;78.75;13534254;-130.713;-51.924;994.259;1714.491;-199.039;-315.785
1.19191;13546054;;13546054;130.54;-470.432;900.726;525.0;-96.25;43.75;13545626;-130.698;-51.933;994.224;1712.329;-202.65;-313.995
1.203187;13557331;;13557331;128.1;-471.896;901.336;472.5;-166.25;70.0;13556908;-130.641;-52.069;994.143;1713.338;-208.705;-315.796
1.214564;13568708;;13568708;129.808;-469.822;902.068;437.5;-175.0;26.25;13568280;-130.569;-52.027;994.096;1711.671;-211.832;-312.693
1.225935;13580079;;13580079;130.418;-467.016;900.238;481.25;-131.25;70.0;13579657;-130.495;-51.97;994.167;1707.9;-214.365;-312.809
1.237305;13591449;;13591449;128.71;-470.798;899.262;437.5;-131.25;-8.75;13591021;-130.393;-51.805;994.222;1706.505;-210.647;-311.168
1.248669;13602813;;13602813;130.296;-468.602;900.604;507.5;-105.0;-8.75;13602391;-130.321;-51.856;994.245;1706.055;-208.865;-310.047
1.260046;13614190;;13614190;131.15;-468.48;900.848;577.5;-148.75;0.0;13613761;-130.46;-51.905;994.314;1706.065;-206.297;-309.857
1.271322;13625466;;13625466;129.32;-469.212;900.848;446.25;-96.25;70.0;13625044;-130.586;-52.0;994.289;1706.949;-201.232;-313.615
1.282612;13636756;;13636756;129.442;-472.872;898.774;463.75;-105.0;26.25;13636327;-130.614;-51.925;994.241;1706.914;-197.733;-312.809
1.293977;13648121;;13648121;128.344;-472.14;899.384;603.75;-96.25;17.5;13647699;-130.605;-51.952;994.238;1709.068;-197.909;-313.356
1.305266;13659410;;13659410;132.248;-469.09;900.238;568.75;-96.25;0.0;13658981;-130.687;-52.087;994.32;1715.49;-191.951;-315.626
1.316455;13670599;;13670599;130.174;-471.286;900.97;533.75;-78.75;52.5;13670177;-130.618;-52.112;994.374;1718.528;-186.728;-319.094
1.327746;13681890;;13681890;131.15;-471.408;900.604;463.75;-87.5;52.5;13681462;-130.584;-52.007;994.395;1722.289;-185.704;-318.452
1.339024;13693168;;13693168;128.588;-473.36;900.97;455.0;-87.5;131.25;13692745;-130.466;-52.14;994.335;1718.424;-174.669;-319.592
1.350401;13704545;;13704545;130.296;-471.408;901.58;516.25;-113.75;26.25;13704117;-130.396;-51.997;994.156;1718.253;-175.561;-318.487
1.361765;13715909;;13715909;128.344;-469.334;900.238;507.5;-105.0;43.75;13715487;-130.452;-52.002;994.145;1718.528;-179.47;-317.438
1.373142;13727286;;13727286;128.954;-470.798;900.97;376.25;-131.25;26.25;13726858;-130.493;-51.952;994.202;1717.914;-182.746;-320.379
1.384506;13738650;;13738650;127.734;-472.018;902.312;463.75;-131.25;-8.75;13738228;-130.624;-51.892;994.152;1717.331;-187.172;-319.235
1.395889;13750033;;13750033;130.784;-468.968;901.092;516.25;-105.0;35.0;13749598;-130.662;-51.889;994.245;1718.089;-190.938;-322.96
1.407247;13761391;;13761391;131.15;-470.676;900.116;507.5;-113.75;43.75;13760969;-130.729;-51.747;994.345;1717.935;-191.454;-323.437
1.418624;13772768;;13772768;131.272;-471.53;899.994;472.5;-122.5;17.5;13772339;-130.677;-51.71;994.41;1717.788;-191.943;-323.891
1.429988;13784132;;13784132;128.466;-472.384;901.214;542.5;-43.75;35.0;13783710;-130.67;-51.674;994.319;1717.649;-186.721;-323.884
1.441276;13795420;;13795420;129.93;-469.944;901.092;507.5;-96.25;70.0;13794992;-130.542;-51.817;994.257;1716.204;-181.76;-325.189
1.452554;13806698;;13806698;129.076;-470.676;900.482;507.5;-87.5;70.0;13806276;-130.493;-51.758;994.21;1715.706;-178.36;-325.555
1.463844;13817988;;13817988;129.198;-470.066;900.116;463.75;-113.75;17.5;13817559;-130.508;-51.787;994.166;1716.546;-175.567;-326.34
1.475209;13829353;;13829353;129.93;-469.7;901.092;455.0;-148.75;-17.5;13828931;-130.479;-51.839;994.167;1712.531;-174.663;-328.398
1.48676;13840904;;13840904;128.954;-470.554;899.994;358.75;-140.0;-43.75;13840476;-130.439;-51.87;994.064;1712.217;-179.493;-329.04
1.49819;13852334;;13852334;128.222;-469.578;897.798;560.0;-52.5;17.5;13851912;-130.517;-51.728;994.106;1712.794;-181.893;-328.338
1.509412;13863556;;13863556;129.442;-470.798;899.628;507.5;-122.5;52.5;13863128;-130.525;-51.68;994.091;1716.842;-187.673;-328.546
1.520777;13874921;;13874921;129.076;-471.164;901.214;525.0;-113.75;122.5;13874499;-130.537;-51.536;994.126;1716.312;-193.165;-329.182
1.532321;13886465;;13886465;130.296;-470.798;900.36;481.25;-105.0;105.0;13886036;-130.599;-51.631;994.049;1718.434;-191.819;-330.222
1.543751;13897895;;13897895;131.028;-472.506;901.336;463.75;-113.75;43.75;13897473;-130.565;-51.678;994.031;1716.95;-189.228;-329.899
1.555068;13909212;;13909212;128.1;-471.53;902.434;455.0;-122.5;43.75;13908784;-130.491;-51.711;994.051;1717.29;-186.329;-329.591
1.566433;13920577;;13920577;130.052;-472.14;900.604;455.0;-78.75;78.75;13920154;-130.499;-51.767;994.063;1716.738;-180.95;-331.487
1.577721;13931865;;13931865;129.076;-472.018;900.97;420.0;-122.5;122.5;13931437;-130.483;-51.869;994.154;1712.276;-176.715;-332.85
1.589237;13943381;;13943381;127.978;-469.456;900.482;560.0;-113.75;87.5;13942959;-130.541;-51.898;994.131;1710.662;-173.129;-330.645
1.60055;13954694;;13954694;128.222;-469.456;901.458;516.25;-148.75;0.0;13954265;-130.541;-51.969;994.079;1710.441;-172.785;-334.238
1.611826;13965970;;13965970;130.784;-467.382;899.628;463.75;-105.0;26.25;13965548;-130.553;-51.902;993.998;1708.919;-174.646;-331.088
1.623204;13977348;;13977348;128.832;-468.968;900.36;551.25;-105.0;78.75;13976920;-130.607;-51.924;994.044;1712.286;-175.976;-330.284
1.634568;13988712;;13988712;130.906;-474.214;900.848;481.25;-148.75;43.75;13988290;-130.726;-51.963;994.069;1714.172;-176.365;-331.27
1.645952;14000096;;14000096;128.466;-468.968;899.262;542.5;-113.75;17.5;13999667;-130.692;-51.939;994.074;1712.901;-180.234;-332.206
1.657309;14011453;;14011453;127.49;-471.042;898.164;490.0;-157.5;0.0;14011031;-130.709;-51.886;994.073;1714.755;-181.723;-332.221
1.668598;14022742;;14022742;131.272;-470.188;900.36;525.0;-140.0;70.0;14022313;-130.737;-51.951;994.091;1717.393;-180.511;-332.235
1.679963;14034107;;14034107;130.906;-471.286;900.726;490.0;-96.25;61.25;14033685;-130.746;-51.861;994.034;1714.648;-181.986;-329.186
1.691251;14045395;;14045395;127.612;-469.334;899.994;533.75;-70.0;0.0;14044967;-130.68;-51.805;994.011;1712.916;-183.824;-327.164
1.702441;14056585;;14056585;130.418;-471.042;899.018;516.25;-113.75;8.75;14056163;-130.74;-51.881;993.977;1711.707;-182.945;-328.743
1.713732;14067876;;14067876;128.466;-472.628;901.58;455.0;-87.5;78.75;14067448;-130.761;-51.928;994.005;1710.122;-183.423;-326.744
1.725009;14079153;;14079153;126.392;-469.578;899.994;542.5;-70.0;8.75;14078731;-130.878;-51.948;993.953;1712.116;-183.002;-327.906
1.736211;14090355;;14090355;129.198;-469.944;899.872;455.0;-113.75;87.5;14089927;-130.757;-51.98;993.885;1714.448;-182.164;-325.511
1.747578;14101722;;14101722;128.71;-471.042;900.116;533.75;-157.5;-8.75;14101299;-130.801;-51.949;993.905;1713.163;-180.931;-326.735
1.758954;14113098;;14113098;130.418;-470.92;899.262;542.5;-166.25;35.0;14112670;-130.74;-51.95;993.797;1711.942;-181.947;-327.024
1.770318;14124462;;14124462;130.296;-471.042;900.604;437.5;-157.5;17.5;14124040;-130.754;-52.055;993.859;1710.782;-180.287;-325.11
1.781695;14135839;;14135839;130.784;-471.774;901.214;463.75;-131.25;8.75;14135411;-130.749;-52.039;993.923;1710.556;-183.085;-325.042
1.792971;14147115;;14147115;130.906;-468.968;900.97;507.5;-43.75;113.75;14146693;-130.782;-51.98;993.832;1710.778;-183.119;-324.977
1.804349;14158493;;14158493;130.296;-473.726;900.36;393.75;-201.25;26.25;14158065;-130.885;-51.992;993.905;1713.614;-177.463;-323.166
1.815713;14169857;;14169857;126.758;-470.188;902.19;507.5;-96.25;0.0;14169435;-130.771;-51.894;994.004;1712.371;-179.09;-321.883
1.826914;14181058;;14181058;132.004;-470.432;899.628;437.5;-113.75;8.75;14180630;-130.789;-52.007;993.988;1712.065;-176.26;-318.914
1.838192;14192336;;14192336;130.784;-469.334;901.824;490.0;-140.0;-8.75;14191914;-130.814;-52.103;994.04;1711.337;-173.572;-319.155
1.84957;14203714;;14203714;129.442;-470.676;901.336;498.75;-105.0;96.25;14203286;-130.69;-52.042;993.986;1711.082;-174.518;-318.948
1.860934;14215078;;14215078;129.93;-469.944;899.14;568.75;-140.0;-26.25;14214656;-130.713;-52.038;994.014;1711.278;-174.98;-317.875
1.872453;14226597;;14226597;130.662;-471.53;901.458;420.0;-166.25;-26.25;14226169;-130.735;-51.968;994.053;1709.277;-170.606;-316.419
1.883939;14238083;;14238083;129.686;-470.92;900.97;455.0;-113.75;35.0;14237661;-130.768;-51.992;994.016;1713.5;-175.201;-314.598
1.895225;14249369;;14249369;131.272;-471.164;900.97;498.75;-70.0;105.0;14248941;-130.787;-52.034;994.0;1712.263;-170.378;-316.806
1.906589;14260733;;14260733;127.246;-474.58;901.458;507.5;-131.25;8.75;14260311;-130.616;-52.031;994.027;1704.525;-169.734;-317.153
1.917878;14272022;;14272022;128.832;-471.53;899.506;516.25;-122.5;61.25;14271594;-130.716;-52.12;993.925;1703.298;-171.748;-316.608
1.929243;14283387;;14283387;129.32;-472.75;898.896;490.0;-78.75;43.75;14282965;-130.719;-52.222;993.858;1704.321;-171.473;-319.59
1.940532;14294676;;14294676;128.222;-470.676;901.214;525.0;-122.5;26.25;14294248;-130.613;-52.063;993.771;1705.73;-172.524;-322.423
1.951898;14306042;;14306042;130.052;-470.31;900.482;463.75;-175.0;-35.0;14305619;-130.664;-51.894;993.779;1706.631;-172.21;-320.739
1.963411;14317555;;14317555;129.198;-468.358;899.14;411.25;-96.25;70.0;14317126;-130.633;-51.898;993.841;1698.737;-168.85;-318.702
1.974637;14328781;;14328781;130.54;-472.384;899.018;446.25;-131.25;43.75;14328359;-130.604;-51.816;993.87;1695.175;-170.907;-320.705
1.986019;14340163;;14340163;130.906;-470.798;902.068;595.0;-105.0;26.25;14339735;-130.601;-51.842;993.868;1697.479;-174.174;-318.669
1.997379;14351523;;14351523;128.344;-468.846;898.53;455.0;-157.5;61.25;14351101;-130.494;-51.885;993.944;1697.917;-173.341;-320.673
2.008756;14362900;;14362900;129.686;-472.506;899.628;385.0;-105.0;35.0;14362471;-130.478;-51.999;993.95;1695.709;-173.424;-322.14
2.02012;14374264;;14374264;128.222;-472.872;899.994;542.5;-140.0;52.5;14373842;-130.536;-51.876;994.022;1693.174;-170.44;-324.408
2.031496;14385640;;14385640;128.71;-471.652;900.97;463.75;-148.75;-35.0;14385212;-130.598;-51.966;994.042;1697.765;-163.668;-324.375
2.043069;14397213;;14397213;129.93;-468.968;900.482;507.5;-61.25;52.5;14396791;-130.607;-51.918;994.067;1698.627;-161.172;-324.781
2.054236;14408380;;14408380;129.076;-472.018;902.068;507.5;-122.5;52.5;14407952;-130.64;-51.927;994.091;1697.258;-154.864;-326.042
2.065601;14419745;;14419745;128.832;-467.992;899.75;455.0;-113.75;35.0;14419323;-130.635;-51.99;994.041;1698.582;-149.308;-328.99
2.076978;14431122;;14431122;128.71;-471.408;901.58;551.25;-148.75;0.0;14430694;-130.649;-52.056;993.999;1696.341;-153.217;-328.291
2.088254;14442398;;14442398;129.564;-468.236;898.53;481.25;-96.25;61.25;14441976;-130.619;-51.991;993.965;1694.211;-155.619;-326.751
2.099544;14453688;;14453688;129.442;-469.822;898.774;393.75;-113.75;35.0;14453260;-130.542;-52.014;993.988;1692.188;-158.776;-328.788
2.110909;14465053;;14465053;128.588;-467.992;902.068;551.25;-78.75;-35.0;14464631;-130.59;-51.896;994.064;1689.391;-162.649;-328.099
2.122286;14476430;;14476430;129.198;-472.018;901.702;525.0;-113.75;52.5;14476002;-130.533;-51.863;994.021;1691.109;-164.579;-328.757
2.13365;14487794;;14487794;127.368;-471.286;901.092;533.75;-122.5;70.0;14487372;-130.375;-51.948;994.066;1693.179;-161.163;-330.694
2.145027;14499171;;14499171;127.612;-469.7;899.384;463.75;-78.75;87.5;14498742;-130.389;-51.949;994.059;1695.582;-162.292;-329.909
2.156303;14510447;;14510447;128.954;-471.53;899.75;551.25;-113.75;87.5;14510025;-130.445;-51.883;994.01;1698.303;-159.428;-331.351
2.167681;14521825;;14521825;128.588;-470.432;901.336;507.5;-113.75;26.25;14521396;-130.438;-52.022;994.086;1692.138;-155.394;-328.346
2.179045;14533189;;14533189;128.954;-470.432;898.408;516.25;-105.0;78.75;14532767;-130.425;-51.965;994.041;1690.656;-158.124;-327.241
2.190421;14544565;;14544565;131.394;-467.992;900.36;472.5;-78.75;61.25;14544137;-130.485;-51.898;994.042;1692.748;-158.093;-327.504
2.201698;14555842;;14555842;131.15;-473.848;900.97;498.75;-105.0;17.5;14555420;-130.561;-51.999;994.0;1695.611;-161.126;-325.129
2.213075;14567219;;14567219;129.32;-468.846;899.018;507.5;-122.5;0.0;14566791;-130.548;-51.919;993.942;1692.205;-163.132;-325.06
2.224352;14578496;;14578496;131.15;-471.774;901.092;481.25;-96.25;43.75;14578074;-130.499;-51.854;993.99;1694.22;-160.663;-324.995
2.235642;14589786;;14589786;129.686;-470.066;900.726;551.25;-78.75;43.75;14589357;-130.538;-51.891;994.018;1697.009;-161.38;-324.057
2.246919;14601063;;14601063;130.418;-471.408;899.506;516.25;-113.75;43.75;14600641;-130.586;-51.919;994.014;1700.971;-161.623;-324.479
2.258297;14612441;;14612441;131.394;-469.09;900.36;481.25;-61.25;105.0;14612012;-130.645;-52.007;994.034;1706.485;-160.98;-324.005
2.269661;14623805;;14623805;130.174;-473.36;899.262;525.0;-96.25;0.0;14623383;-130.64;-51.956;993.938;1705.161;-164.743;-325.305
2.280862;14635006;;14635006;127.368;-472.018;901.214;542.5;-96.25;-17.5;14634577;-130.531;-51.921;993.87;1702.59;-166.568;-325.227
2.292228;14646372;;14646372;130.052;-470.31;901.458;472.5;-131.25;43.75;14645950;-130.446;-52.021;993.91;1700.586;-168.303;-322.529
2.303605;14657749;;14657749;130.418;-471.774;900.238;516.25;-105.0;-17.5;14657320;-130.347;-52.073;993.93;1703.931;-169.512;-320.402
2.315115;14669259;;14669259;130.296;-470.554;900.482;533.75;-148.75;43.75;14668837;-130.332;-52.087;993.954;1704.047;-166.724;-324.069
2.326432;14680576;;14680576;130.296;-468.48;901.824;542.5;-105.0;96.25;14680148;-130.288;-52.093;993.917;1707.22;-166.263;-325.804
2.337796;14691940;;14691940;126.758;-471.286;901.336;490.0;-122.5;26.25;14691518;-130.264;-51.971;993.85;1707.172;-170.2;-327.451
2.349173;14703317;;14703317;129.442;-471.164;901.336;463.75;-131.25;17.5;14702889;-130.296;-51.934;993.727;1711.938;-172.627;-331.203
2.360537;14714681;;14714681;129.93;-469.09;901.214;446.25;-78.75;35.0;14714259;-130.278;-51.912;993.682;1708.591;-178.434;-328.206
2.371826;14725970;;14725970;128.954;-472.994;899.14;428.75;-105.0;70.0;14725541;-130.291;-51.872;993.713;1705.411;-179.574;-329.295
2.383191;14737335;;14737335;131.272;-470.31;900.36;516.25;-148.75;8.75;14736913;-130.255;-51.841;993.95;1708.953;-181.971;-333.831
2.39448;14748624;;14748624;127.856;-469.578;900.36;577.5;-105.0;8.75;14748195;-130.196;-51.817;993.979;1713.193;-175.935;-332.014
2.405757;14759901;;14759901;128.466;-470.066;899.75;472.5;-113.75;52.5;14759479;-130.182;-51.806;993.867;1719.409;-169.763;-330.726
2.417135;14771279;;14771279;127.612;-470.432;901.214;525.0;-70.0;70.0;14770851;-130.292;-51.851;993.779;1718.751;-166.962;-329.502
2.428411;14782555;;14782555;129.442;-471.774;898.774;455.0;-105.0;8.75;14782133;-130.335;-52.022;993.836;1715.063;-167.364;-328.777
2.439701;14793845;;14793845;131.15;-469.09;901.092;603.75;-105.0;70.0;14793417;-130.302;-51.916;993.956;1714.622;-172.121;-324.151
2.451066;14805210;;14805210;128.222;-472.018;901.214;463.75;-96.25;96.25;14804788;-130.302;-51.864;993.919;1712.891;-174.452;-324.568
2.462355;14816499;;14816499;130.54;-472.628;900.726;525.0;-113.75;61.25;14816071;-130.448;-51.924;993.852;1711.684;-180.605;-324.527
2.47372;14827864;;14827864;129.93;-471.164;899.384;481.25;-96.25;78.75;14827442;-130.404;-51.896;993.789;1713.163;-186.012;-322.301
2.485009;14839153;;14839153;132.004;-468.48;901.092;490.0;-113.75;43.75;14838725;-130.465;-52.076;993.955;1714.567;-189.836;-322.373
2.496374;14850518;;14850518;130.174;-470.798;900.116;385.0;-52.5;61.25;14850096;-130.475;-52.199;994.015;1711.526;-188.657;-325.505
2.507663;14861807;;14861807;129.564;-469.456;899.506;420.0;-87.5;43.75;14861379;-130.527;-52.176;994.023;1709.95;-187.099;-331.104
2.51894;14873084;;14873084;129.076;-471.042;902.434;542.5;-148.75;-8.75;14872662;-130.571;-52.208;994.092;1712.827;-183.869;-331.612
2.530318;14884462;;14884462;127.856;-469.456;901.214;603.75;-157.5;-26.25;14884034;-130.539;-52.196;994.121;1717.311;-185.176;-332.969
2.541846;14895990;;14895990;131.882;-472.14;902.068;525.0;-113.75;8.75;14895568;-130.496;-52.258;994.16;1720.258;-183.792;-333.383
2.553058;14907202;;14907202;127.002;-470.188;898.896;472.5;-70.0;61.25;14906773;-130.571;-52.256;994.027;1716.932;-179.415;-332.464
2.564335;14918479;;14918479;128.954;-470.554;900.604;367.5;-131.25;-17.5;14918057;-130.509;-52.212;993.9;1712.898;-180.069;-332.903
2.575856;14930000;;14930000;130.906;-469.7;900.36;638.75;-157.5;8.75;14929569;-130.553;-52.352;993.945;1715.191;-183.753;-334.633
2.587076;14941220;;14941220;132.614;-470.188;901.214;507.5;-122.5;70.0;14940798;-130.656;-52.339;993.993;1718.681;-189.441;-334.964
2.598454;14952598;;14952598;129.32;-469.578;900.238;402.5;-78.75;-17.5;14952169;-130.614;-52.425;993.996;1718.06;-192.656;-338.34
2.609818;14963962;;14963962;128.832;-473.848;900.482;463.75;-70.0;26.25;14963540;-130.689;-52.487;993.944;1720.094;-197.461;-337.173
2.621106;14975250;;14975250;129.198;-468.358;899.018;638.75;-157.5;35.0;14974822;-130.786;-52.645;993.931;1722.902;-195.9;-335.19
2.632472;14986616;;14986616;129.93;-469.578;899.14;542.5;-148.75;-70.0;14986194;-130.804;-52.593;994.047;1726.882;-195.293;-335.493
2.643995;14998139;;14998139;131.882;-471.896;901.336;437.5;-122.5;105.0;14997711;-130.821;-52.434;993.975;1723.225;-195.153;-337.093
2.655464;15009608;;15009608;130.906;-472.75;899.262;428.75;-148.75;87.5;15009186;-130.85;-52.313;993.924;1725.439;-193.708;-335.988
2.666763;15020907;;15020907;128.71;-472.506;901.58;568.75;-131.25;17.5;15020478;-130.773;-52.351;993.967;1727.105;-195.835;-335.814
2.678127;15032271;;15032271;130.54;-471.164;899.018;630.0;-113.75;35.0;15031849;-130.884;-52.252;993.996;1731.312;-199.606;-333.898
2.689504;15043648;;15043648;130.296;-470.432;901.214;437.5;-131.25;17.5;15043219;-130.818;-52.135;994.066;1729.621;-198.375;-336.016
2.700868;15055012;;15055012;128.832;-471.53;900.726;393.75;-96.25;61.25;15054590;-130.84;-52.084;994.096;1724.515;-195.894;-338.465
2.712156;15066300;;15066300;129.076;-471.774;900.482;533.75;-157.5;0.0;15065872;-130.868;-52.005;994.045;1733.227;-193.537;-338.167
2.723434;15077578;;15077578;131.028;-470.554;898.53;577.5;-122.5;-35.0;15077155;-130.894;-52.064;994.034;1733.628;-191.735;-337.009
2.734984;15089128;;15089128;128.344;-470.188;900.482;568.75;-122.5;70.0;15088699;-130.803;-52.115;994.035;1736.197;-193.086;-335.471
2.746262;15100406;;15100406;131.15;-470.798;900.116;446.25;-105.0;113.75;15099984;-130.906;-52.04;994.005;1731.199;-193.932;-337.072
2.757777;15111921;;15111921;130.052;-472.262;899.506;507.5;-113.75;8.75;15111492;-130.809;-52.068;993.861;1730.827;-194.735;-338.156
2.769002;15123146;;15123146;129.198;-470.432;896.822;638.75;-105.0;70.0;15122724;-130.85;-52.093;993.828;1728.286;-202.498;-336.998
2.78038;15134524;;15134524;128.222;-469.456;900.97;481.25;-113.75;70.0;15134096;-130.773;-52.087;993.901;1728.496;-205.061;-338.086
2.791744;15145888;;15145888;130.418;-475.068;900.482;551.25;-52.5;122.5;15145466;-130.652;-52.088;993.939;1721.697;-204.433;-333.869
2.803121;15157265;;15157265;126.392;-472.018;902.922;516.25;-227.5;-61.25;15156836;-130.573;-52.039;993.927;1730.987;-200.336;-334.675
2.814642;15168786;;15168786;130.662;-468.602;898.53;621.25;-87.5;-70.0;15168364;-130.633;-52.024;993.915;1731.5;-194.694;-337.192
2.825955;15180099;;15180099;128.954;-470.676;904.02;315.0;-87.5;96.25;15179671;-130.719;-52.058;993.958;1729.8;-188.46;-337.395
2.837224;15191368;;15191368;127.612;-471.286;903.41;883.75;17.5;157.5;15190946;-130.686;-52.078;993.945;1723.81;-187.349;-339.337
2.848514;15202658;;15202658;128.832;-470.31;901.214;315.0;-227.5;-78.75;15202230;-130.642;-52.121;993.938;1729.057;-182.794;-340.746
2.860078;15214222;;15214222;131.638;-471.286;898.042;630.0;-96.25;78.75;15213800;-130.649;-52.108;993.932;1727.917;-186.779;-341.646
2.871255;15225399;;15225399;127.978;-471.652;903.532;323.75;-113.75;113.75;15224971;-130.76;-52.028;993.95;1732.083;-191.003;-338.126
2.882771;15236915;;15236915;129.93;-468.724;901.946;901.25;-78.75;26.25;15236493;-130.73;-51.891;993.931;1732.542;-191.078;-338.72
2.893996;15248140;;15248140;130.784;-468.846;899.872;218.75;-227.5;0.0;15247711;-130.727;-51.773;993.883;1736.039;-196.836;-337.971
2.905273;15259417;;15259417;128.1;-473.482;899.018;612.5;-17.5;113.75;15258995;-130.846;-51.807;993.971;1734.55;-197.057;-338.135
2.916651;15270795;;15270795;127.002;-466.528;903.044;533.75;-157.5;-52.5;15270367;-130.843;-51.84;994.036;1730.51;-195.517;-334.791
2.928156;15282300;;15282300;131.516;-470.432;901.458;621.25;-52.5;87.5;15281877;-130.767;-51.938;994.037;1731.047;-194.491;-335.551
2.939391;15293535;;15293535;128.466;-469.456;898.652;350.0;-183.75;-61.25;15293106;-130.767;-51.793;993.958;1727.182;-196.141;-335.836
2.950897;15305041;;15305041;130.418;-472.14;898.774;595.0;-8.75;105.0;15304619;-130.695;-51.814;993.982;1722.198;-194.647;-338.732
2.962131;15316275;;15316275;130.662;-469.334;898.164;481.25;-96.25;-43.75;15315847;-130.657;-51.749;994.046;1718.776;-193.664;-337.108
2.973497;15327641;;15327641;126.88;-471.042;900.482;516.25;-78.75;96.25;15327219;-130.675;-51.821;994.083;1717.712;-196.231;-338.627
2.984785;15338929;;15338929;130.174;-473.97;900.116;420.0;-166.25;-61.25;15338501;-130.583;-51.835;993.984;1715.389;-193.42;-340.071
2.996291;15350435;;15350435;128.1;-471.53;900.36;638.75;-78.75;96.25;15350013;-130.514;-51.787;993.976;1720.182;-194.686;-340.568
3.007526;15361670;;15361670;134.322;-471.652;900.238;437.5;-157.5;35.0;15361242;-130.515;-51.881;994.041;1723.423;-194.139;-341.914
3.018892;15373036;;15373036;130.174;-470.188;901.214;638.75;-43.75;70.0;15372613;-130.602;-51.776;993.962;1724.314;-198.432;-338.818
3.03018;15384324;;15384324;132.98;-471.53;901.092;402.5;-113.75;17.5;15383896;-130.623;-51.755;993.851;1717.286;-199.448;-338.503
3.041545;15395689;;15395689;130.54;-470.798;902.8;542.5;-113.75;70.0;15395267;-130.607;-51.858;993.758;1718.922;-199.976;-337.327
3.052922;15407066;;15407066;128.832;-469.822;897.188;481.25;-140.0;-43.75;15406638;-130.597;-51.888;993.925;1714.351;-203.977;-335.336
3.064458;15418602;;15418602;129.32;-468.114;902.312;638.75;-61.25;61.25;15418180;-130.576;-51.807;994.048;1710.446;-206.028;-336.507
3.075662;15429806;;15429806;130.54;-472.994;900.726;455.0;-87.5;61.25;15429377;-130.593;-51.784;994.011;1712.423;-196.602;-336.306
3.086939;15441083;;15441083;130.418;-470.188;900.36;586.25;-87.5;8.75;15440661;-130.663;-51.727;994.038;1709.927;-193.772;-335.241
3.098141;15452285;;15452285;129.076;-471.53;899.14;446.25;-70.0;35.0;15451857;-130.797;-51.715;994.033;1709.306;-195.021;-334.667
3.109419;15463563;;15463563;131.028;-470.676;902.19;630.0;-70.0;52.5;15463141;-130.675;-51.654;994.144;1712.215;-191.832;-334.121
3.120709;15474853;;15474853;130.052;-469.822;903.044;498.75;-175.0;43.75;15474425;-130.662;-51.707;994.036;1713.667;-192.741;-333.602
3.132075;15486219;;15486219;130.784;-469.7;900.36;376.25;-61.25;70.0;15485796;-130.662;-51.763;993.957;1713.734;-196.666;-334.422
3.143363;15497507;;15497507;130.784;-470.432;900.97;577.5;-113.75;43.75;15497079;-130.674;-51.779;994.133;1713.36;-199.083;-333.888
3.154729;15508873;;15508873;128.588;-469.578;900.238;673.75;-78.75;-78.75;15508450;-130.625;-51.728;994.215;1716.504;-198.754;-332.507
3.166105;15520249;;15520249;130.662;-469.7;900.848;481.25;-105.0;35.0;15519821;-130.572;-51.685;994.207;1720.804;-194.066;-331.631
3.177469;15531613;;15531613;128.71;-472.872;899.14;341.25;-113.75;70.0;15531191;-130.564;-51.651;994.071;1717.014;-186.113;-332.112
3.188846;15542990;;15542990;131.394;-471.042;900.116;568.75;-140.0;-52.5;15542562;-130.636;-51.563;994.07;1715.163;-184.682;-331.694
3.200373;15554517;;15554517;131.15;-471.164;899.872;682.5;-122.5;-26.25;15554095;-130.814;-51.486;994.063;1720.405;-181.573;-331.734
3.211829;15565973;;15565973;129.686;-470.066;899.75;428.75;-96.25;87.5;15565545;-130.733;-51.419;994.02;1722.322;-181.682;-330.898
3.223036;15577180;;15577180;127.612;-470.798;898.408;306.25;-131.25;87.5;15576758;-130.712;-51.434;994.022;1718.019;-186.16;-330.978
3.234414;15588558;;15588558;130.54;-471.774;899.75;603.75;-140.0;87.5;15588130;-130.666;-51.559;994.006;1716.555;-186.04;-332.366
3.245779;15599923;;15599923;130.296;-468.968;899.018;621.25;-140.0;-26.25;15599500;-130.617;-51.518;994.063;1721.728;-186.363;-338.06
3.257295;15611439;;15611439;130.174;-467.87;902.19;428.75;-183.75;43.75;15611010;-130.583;-51.535;994.038;1718.766;-187.982;-336.032
3.268606;15622750;;15622750;129.442;-472.872;899.384;341.25;-52.5;0.0;15622328;-130.691;-51.532;994.063;1724.265;-189.083;-335.856
3.279807;15633951;;15633951;126.514;-471.53;900.116;481.25;-113.75;61.25;15633522;-130.659;-51.536;994.069;1722.927;-187.504;-335.251
3.291173;15645317;;15645317;127.734;-469.7;901.214;647.5;-175.0;-17.5;15644895;-130.592;-51.509;993.977;1731.281;-192.129;-335.113
3.302688;15656832;;15656832;127.124;-470.066;901.824;525.0;-131.25;35.0;15656403;-130.614;-51.526;994.005;1729.154;-195.21;-333.232
3.314001;15668145;;15668145;130.296;-470.554;900.726;393.75;-70.0;35.0;15667723;-130.549;-51.518;994.014;1726.696;-193.762;-332.758
3.325289;15679433;;15679433;127.124;-469.822;900.116;472.5;-140.0;105.0;15679005;-130.548;-51.541;994.071;1720.424;-193.261;-331.87
3.336824;15690968;;15690968;130.052;-472.018;900.36;621.25;-96.25;26.25;15690546;-130.481;-51.526;993.973;1727.153;-189.286;-334.964
3.34803;15702174;;15702174;131.882;-471.896;900.116;656.25;-131.25;-70.0;15701746;-130.636;-51.444;994.044;1726.545;-184.634;-337.466
3.359548;15713692;;15713692;130.662;-469.822;900.238;428.75;-43.75;52.5;15713270;-130.589;-51.489;994.167;1722.03;-182.402;-336.343
3.370771;15724915;;15724915;127.002;-472.018;899.506;455.0;-96.25;26.25;15724487;-130.629;-51.507;994.039;1720.804;-180.719;-335.276
3.382048;15736192;;15736192;129.076;-473.482;900.36;533.75;-148.75;35.0;15735770;-130.582;-51.628;993.967;1718.326;-181.746;-331.199
3.393426;15747570;;15747570;130.906;-470.92;901.58;638.75;-96.25;-17.5;15747142;-130.635;-51.706;993.959;1720.347;-187.096;-331.264
3.40479;15758934;;15758934;130.906;-469.944;900.604;411.25;-96.25;26.25;15758512;-130.612;-51.677;993.988;1720.517;-188.241;-331.764
3.416079;15770223;;15770223;131.638;-472.872;901.458;341.25;-96.25;70.0;15769795;-130.614;-51.63;993.827;1716.742;-190.204;-330.488
3.427356;15781500;;15781500;129.32;-472.262;897.798;455.0;-122.5;70.0;15781078;-130.556;-51.605;993.82;1714.905;-194.257;-326.651
3.438734;15792878;;15792878;130.662;-471.164;899.628;612.5;-192.5;8.75;15792450;-130.494;-51.617;993.868;1715.784;-193.294;-324.756
3.45001;15804154;;15804154;129.564;-471.164;899.384;446.25;-175.0;43.75;15803732;-130.569;-51.482;993.914;1721.87;-195.004;-326.018
3.461388;15815532;;15815532;128.344;-469.09;898.53;437.5;-96.25;78.75;15815104;-130.476;-51.452;993.976;1716.714;-196.191;-325.467
3.472664;15826808;;15826808;128.832;-471.042;899.14;446.25;-105.0;35.0;15826386;-130.571;-51.46;993.901;1716.191;-189.444;-325.381
3.484042;15838186;;15838186;129.564;-471.53;899.872;533.75;-148.75;17.5;15837758;-130.527;-51.534;993.866;1717.881;-187.41;-327.487
3.495406;15849550;;15849550;130.54;-470.676;898.53;472.5;-148.75;26.25;15849128;-130.485;-51.599;993.894;1722.987;-188.102;-329.926
3.506783;15860927;;15860927;130.418;-470.676;899.14;472.5;-52.5;35.0;15860499;-130.384;-51.556;993.804;1725.213;-188.759;-328.742
3.518059;15872203;;15872203;131.272;-472.262;898.408;463.75;-113.75;8.75;15871781;-130.294;-51.62;993.854;1726.015;-188.071;-332.867
3.529349;15883493;;15883493;131.15;-471.286;900.36;542.5;-131.25;43.75;15883065;-130.203;-51.515;993.919;1731.151;-186.543;-335.036
3.540714;15894858;;15894858;131.76;-470.31;900.726;551.25;-113.75;0.0;15894436;-130.189;-51.538;993.932;1729.906;-186.403;-338.847
3.552003;15906147;;15906147;130.784;-470.066;899.872;411.25;-105.0;26.25;15905718;-130.231;-51.438;993.913;1729.161;-186.27;-338.53
3.563368;15917512;;15917512;129.198;-469.944;901.58;472.5;-131.25;61.25;15917090;-130.32;-51.373;993.951;1720.141;-186.144;-337.353
3.574745;15928889;;15928889;128.71;-472.75;901.092;472.5;-105.0;17.5;15928461;-130.434;-51.458;993.95;1716.383;-184.275;-334.486
3.586109;15940253;;15940253;129.686;-472.384;899.506;560.0;-113.75;-17.5;15939831;-130.409;-51.368;993.913;1718.939;-188.186;-333.074
3.597656;15951800;;15951800;129.198;-469.456;899.75;621.25;-105.0;-8.75;15951372;-130.41;-51.343;993.896;1717.867;-190.589;-333.483
3.608937;15963081;;15963081;129.93;-469.7;900.36;411.25;-122.5;26.25;15962658;-130.434;-51.332;993.916;1714.661;-190.685;-332.558
3.620313;15974457;;15974457;126.758;-468.48;901.946;507.5;-61.25;8.75;15974029;-130.385;-51.26;993.923;1712.491;-191.213;-332.118
3.631501;15985645;;15985645;131.028;-471.042;901.092;516.25;-148.75;61.25;15985223;-130.374;-51.277;993.862;1711.741;-186.902;-333.012
3.64288;15997024;;15997024;132.004;-472.14;898.774;498.75;-122.5;78.75;15996596;-130.34;-51.251;993.933;1717.592;-183.245;-329.486
3.654245;16008389;;16008389;129.808;-472.018;899.994;525.0;-78.75;26.25;16007967;-130.374;-51.208;993.933;1715.275;-183.707;-328.325
3.665538;16019682;;16019682;129.32;-471.774;901.214;437.5;-113.75;17.5;16019249;-130.297;-51.313;993.897;1716.136;-178.897;-327.221
3.676898;16031042;;16031042;127.734;-472.14;900.36;490.0;-122.5;43.75;16030620;-130.334;-51.468;993.898;1716.954;-177.39;-326.172
3.688275;16042419;;16042419;130.784;-472.628;899.018;551.25;-131.25;52.5;16041991;-130.405;-51.402;993.821;1719.044;-183.395;-325.614
3.699639;16053783;;16053783;129.198;-470.676;899.994;507.5;-140.0;8.75;16053361;-130.461;-51.467;993.906;1716.217;-181.663;-323.771
3.710928;16065072;;16065072;127.856;-472.14;901.214;358.75;-140.0;43.75;16064644;-130.525;-51.504;993.968;1715.281;-185.267;-324.645
3.722293;16076437;;16076437;130.052;-472.384;899.384;455.0;-122.5;113.75;16076015;-130.404;-51.448;993.967;1713.08;-189.566;-323.287
3.733821;16087965;;16087965;131.638;-468.968;899.75;516.25;-140.0;17.5;16087536;-130.387;-51.505;993.941;1710.551;-188.401;-326.373
3.745121;16099265;;16099265;130.296;-469.09;899.262;481.25;-131.25;52.5;16098843;-130.339;-51.583;993.934;1715.586;-186.856;-327.554
3.756497;16110641;;16110641;129.93;-470.188;899.506;533.75;-105.0;52.5;16110213;-130.514;-51.578;993.812;1719.056;-184.075;-328.677
3.767862;16122006;;16122006;130.784;-469.212;902.312;490.0;-131.25;43.75;16121584;-130.485;-51.738;993.837;1719.729;-180.122;-329.743
3.779238;16133382;;16133382;128.1;-469.822;902.19;472.5;-131.25;61.25;16132954;-130.573;-51.75;993.762;1722.992;-181.615;-326.381
3.790603;16144747;;16144747;126.88;-471.408;898.652;577.5;-122.5;70.0;16144324;-130.59;-51.786;993.716;1726.092;-185.66;-324.937
3.801979;16156123;;16156123;127.978;-470.92;897.676;455.0;-87.5;52.5;16155695;-130.581;-51.862;993.623;1728.163;-188.627;-325.315
3.813255;16167399;;16167399;130.418;-469.456;901.946;463.75;-105.0;78.75;16166977;-130.469;-51.892;993.565;1725.755;-196.258;-323.049
3.824633;16178777;;16178777;130.052;-470.676;900.482;542.5;-105.0;17.5;16178349;-130.387;-51.926;993.559;1721.279;-197.82;-328.772
3.836004;16190148;;16190148;131.882;-472.628;899.506;595.0;-140.0;26.25;16189726;-130.243;-51.99;993.639;1723.59;-194.491;-329.395
3.847374;16201518;;16201518;129.93;-470.188;900.238;481.25;-122.5;52.5;16201090;-130.257;-51.787;993.758;1723.598;-188.267;-328.238
3.858738;16212882;;16212882;131.272;-472.872;900.482;455.0;-96.25;0.0;16212460;-130.418;-51.748;993.76;1722.293;-180.604;-329.764
3.869939;16224083;;16224083;129.93;-472.506;899.262;490.0;-131.25;35.0;16223654;-130.448;-51.814;993.714;1726.741;-172.886;-331.651
3.881305;16235449;;16235449;128.832;-471.896;900.726;533.75;-122.5;8.75;16235027;-130.429;-51.907;993.78;1732.717;-171.679;-333.443
3.892594;16246738;;16246738;131.638;-471.774;901.336;533.75;-105.0;17.5;16246310;-130.593;-51.85;993.806;1737.081;-173.158;-332.958
3.903959;16258103;;16258103;130.174;-470.92;900.238;446.25;-122.5;26.25;16257681;-130.645;-51.746;993.758;1735.977;-177.625;-334.686
3.915336;16269480;;16269480;130.662;-470.554;900.726;472.5;-122.5;-17.5;16269051;-130.676;-51.8;993.724;1733.616;-184.056;-335.014
3.926859;16281003;;16281003;128.71;-470.798;900.482;490.0;-140.0;8.75;16280581;-130.7;-51.845;993.759;1732.685;-192.353;-338.388
3.938076;16292220;;16292220;129.198;-469.822;899.14;446.25;-113.75;-8.75;16291791;-130.631;-51.815;993.816;1726.551;-193.236;-339.406
3.949441;16303585;;16303585;130.052;-471.042;902.678;463.75;-131.25;43.75;16303163;-130.62;-51.908;993.828;1729.473;-193.199;-338.186
3.960817;16314961;;16314961;129.808;-467.748;900.604;525.0;-78.75;8.75;16314533;-130.549;-51.905;993.949;1730.062;-186.601;-335.714
3.972006;16326150;;16326150;128.954;-472.262;900.36;490.0;-122.5;26.25;16325728;-130.5;-51.915;993.863;1728.871;-180.771;-333.803
3.983384;16337528;;16337528;128.222;-473.238;901.702;516.25;-105.0;87.5;16337100;-130.484;-51.82;993.848;1731.24;-175.233;-334.176
3.994749;16348893;;16348893;129.564;-471.286;899.872;516.25;-131.25;26.25;16348471;-130.596;-51.84;993.84;1733.928;-173.471;-333.654
4.006125;16360269;;16360269;129.442;-472.384;901.336;463.75;-96.25;70.0;16359841;-130.709;-51.913;993.876;1729.482;-175.735;-332.284
4.017401;16371545;;16371545;128.1;-472.872;899.018;490.0;-122.5;26.25;16371123;-130.847;-51.916;993.872;1728.32;-184.448;-329.233
4.028779;16382923;;16382923;130.54;-473.604;899.14;533.75;-113.75;148.75;16382495;-130.74;-51.986;993.9;1727.217;-190.976;-328.958
4.040304;16394448;;16394448;131.394;-471.286;896.944;463.75;-96.25;-61.25;16394025;-130.639;-51.998;993.908;1724.418;-198.49;-327.385
4.051607;16405751;;16405751;130.54;-472.262;899.384;507.5;-122.5;70.0;16405323;-130.616;-51.887;993.97;1721.76;-199.065;-326.329
4.062971;16417115;;16417115;126.758;-470.676;900.36;507.5;-113.75;52.5;16416693;-130.594;-51.86;993.98;1713.984;-192.174;-325.325
4.074348;16428492;;16428492;129.32;-473.116;902.434;490.0;-122.5;105.0;16428063;-130.658;-51.842;993.996;1713.598;-184.316;-323.496
4.085881;16440025;;16440025;127.978;-470.31;900.97;507.5;-131.25;0.0;16439596;-130.609;-51.848;993.859;1717.605;-176.85;-323.946
4.097087;16451231;;16451231;130.662;-469.212;900.36;516.25;-148.75;78.75;16450803;-130.697;-51.995;993.832;1718.35;-172.82;-325.249
4.108453;16462597;;16462597;131.028;-468.358;902.312;472.5;-122.5;87.5;16462174;-130.732;-52.103;993.813;1715.12;-174.679;-324.299
4.119829;16473973;;16473973;125.538;-470.31;901.214;568.75;-105.0;26.25;16473545;-130.656;-52.036;993.74;1714.677;-182.132;-323.397
4.131193;16485337;;16485337;128.71;-469.456;900.36;472.5;-131.25;-52.5;16484915;-130.638;-52.087;993.719;1714.255;-184.838;-322.102
4.142739;16496883;;16496883;130.052;-469.334;899.384;577.5;-96.25;8.75;16496454;-130.694;-52.045;993.711;1717.792;-192.659;-322.184
4.153845;16507989;;16507989;130.052;-469.456;900.726;533.75;-87.5;70.0;16507567;-130.753;-52.151;993.765;1718.965;-194.401;-324.45
4.165136;16519280;;16519280;129.564;-472.384;901.092;455.0;-105.0;8.75;16518852;-130.712;-52.026;993.841;1722.704;-194.306;-321.79
4.176413;16530557;;16530557;129.686;-471.53;899.75;411.25;-175.0;87.5;16530135;-130.618;-51.963;993.809;1723.632;-197.278;-324.075
4.187791;16541935;;16541935;128.222;-472.262;902.19;490.0;-122.5;43.75;16541507;-130.632;-51.902;993.815;1725.825;-194.852;-324.934
4.199155;16553299;;16553299;130.296;-469.944;900.604;437.5;-140.0;35.0;16552877;-130.683;-52.113;993.821;1723.971;-192.984;-324.437
4.210532;16564676;;16564676;131.15;-470.188;900.726;472.5;-131.25;52.5;16564248;-130.718;-52.094;993.802;1720.023;-192.085;-322.216
4.221896;16576040;;16576040;129.808;-470.432;902.556;516.25;-148.75;52.5;16575618;-130.819;-52.008;993.888;1723.709;-191.668;-322.73
4.233273;16587417;;16587417;129.93;-470.798;899.994;498.75;-140.0;17.5;16586988;-130.83;-52.104;993.915;1721.961;-187.335;-323.656
4.244637;16598781;;16598781;129.686;-471.408;899.994;481.25;-148.75;61.25;16598359;-130.931;-52.152;993.928;1726.863;-186.718;-324.973
4.256019;16610163;;16610163;128.954;-474.092;897.92;507.5;-157.5;70.0;16609734;-130.893;-52.119;993.941;1727.145;-189.632;-327.537
4.267378;16621522;;16621522;126.392;-472.75;900.97;507.5;-131.25;43.75;16621100;-130.882;-52.093;993.891;1722.163;-189.775;-327.785
4.278754;16632898;;16632898;129.076;-468.602;901.214;507.5;-70.0;-8.75;16632470;-130.938;-52.014;993.9;1728.367;-189.474;-327.146
4.29003;16644174;;16644174;128.588;-473.848;899.994;507.5;-87.5;78.75;16643752;-130.912;-51.896;993.914;1725.074;-189.626;-330.038
4.30132;16655464;;16655464;129.808;-470.432;901.336;428.75;-131.25;26.25;16655036;-130.863;-51.955;994.055;1725.008;-188.894;-330.599
4.312686;16666830;;16666830;130.052;-471.286;901.702;525.0;-70.0;17.5;16666408;-130.84;-51.913;994.037;1722.32;-186.887;-332.444
4.323974;16678118;;16678118;129.442;-469.456;899.872;542.5;-105.0;8.75;16677690;-130.795;-51.843;994.086;1718.454;-185.418;-333.322
4.335252;16689396;;16689396;129.198;-472.018;898.774;490.0;-61.25;35.0;16688974;-130.672;-51.916;994.091;1713.031;-188.397;-331.093
4.346542;16700686;;16700686;129.93;-468.724;900.604;472.5;-105.0;0.0;16700257;-130.623;-51.937;994.175;1715.754;-189.477;-332.039
4.357819;16711963;;16711963;131.272;-471.652;901.092;560.0;-122.5;-26.25;16711541;-130.619;-51.982;994.114;1718.779;-190.503;-333.812
4.369348;16723492;;16723492;130.418;-472.506;899.384;490.0;-113.75;-35.0;16723064;-130.505;-51.914;994.215;1722.09;-191.04;-333.309
4.380821;16734965;;16734965;128.71;-472.872;902.068;542.5;-78.75;70.0;16734543;-130.482;-51.844;994.225;1721.298;-191.551;-333.268
4.392023;16746167;;16746167;131.028;-470.188;899.384;490.0;-113.75;43.75;16745739;-130.455;-51.814;994.204;1719.233;-188.098;-331.917
4.403388;16757532;;16757532;131.15;-471.774;900.97;463.75;-113.75;35.0;16757110;-130.355;-51.7;994.258;1722.084;-187.881;-329.321
4.414765;16768909;;16768909;129.198;-469.944;901.58;516.25;-105.0;-8.75;16768481;-130.359;-51.591;994.315;1723.042;-185.924;-330.355
4.426129;16780273;;16780273;129.442;-471.896;899.628;533.75;-105.0;17.5;16779851;-130.392;-51.574;994.271;1723.078;-183.628;-330.025
4.437506;16791650;;16791650;128.344;-471.652;899.994;472.5;-122.5;26.25;16791221;-130.399;-51.539;994.358;1723.549;-184.509;-329.711
4.44887;16803014;;16803014;128.1;-471.408;901.946;463.75;-78.75;61.25;16802592;-130.394;-51.585;994.27;1720.496;-181.846;-328.538
4.460159;16814303;;16814303;128.466;-471.408;901.214;551.25;-78.75;0.0;16813874;-130.414;-51.635;994.278;1719.784;-178.441;-326.111
4.471348;16825492;;16825492;129.686;-473.238;898.774;577.5;-96.25;70.0;16825070;-130.371;-51.578;994.175;1719.982;-174.332;-325.556
4.482639;16836783;;16836783;128.466;-469.578;901.214;507.5;-96.25;26.25;16836355;-130.441;-51.677;994.224;1714.483;-173.053;-326.778
4.493916;16848060;;16848060;130.54;-471.652;899.628;490.0;-122.5;43.75;16847638;-130.446;-51.686;994.325;1714.509;-173.15;-331.002
4.505294;16859438;;16859438;128.832;-470.676;900.482;612.5;-70.0;-8.75;16859010;-130.402;-51.536;994.324;1721.096;-173.243;-328.452
4.51657;16870714;;16870714;128.588;-471.408;901.336;647.5;-96.25;26.25;16870292;-130.415;-51.484;994.189;1728.229;-170.268;-329.529
4.52786;16882004;;16882004;131.394;-470.31;900.848;420.0;-105.0;26.25;16881576;-130.433;-51.661;994.139;1725.38;-170.067;-331.865
4.539226;16893370;;16893370;130.174;-471.774;900.97;455.0;-122.5;70.0;16892947;-130.402;-51.664;994.092;1726.611;-176.439;-329.709
4.550602;16904746;;16904746;130.296;-468.968;900.726;638.75;-122.5;52.5;16904318;-130.372;-51.649;994.139;1733.905;-173.742;-328.099
4.561966;16916110;;16916110;129.808;-470.31;899.75;393.75;-52.5;87.5;16915688;-130.441;-51.617;994.099;1732.522;-176.867;-328.319
4.573255;16927399;;16927399;129.686;-470.432;899.994;323.75;-96.25;26.25;16926971;-130.581;-51.665;994.005;1729.896;-192.524;-327.215
4.584532;16938676;;16938676;127.246;-471.53;900.238;472.5;-122.5;17.5;16938254;-130.56;-51.57;994.172;1730.464;-199.96;-327.48
4.595917;16950061;;16950061;127.856;-467.138;896.09;656.25;-157.5;-43.75;16949632;-130.401;-51.56;994.258;1741.066;-196.962;-325.981
4.607009;16961153;;;;;;;;;16961153;-130.328;-51.459;994.266;1733.637;-181.427;-324.119
