timestamp_s;timestamp_us;emg_raw;imu1_timestamp_us;imu1_ax;imu1_ay;imu1_az;imu1_gx;imu1_gy;imu1_gz;imu2_timestamp_us;imu2_ax;imu2_ay;imu2_az;imu2_gx;imu2_gy;imu2_gz
0.0;0;1167;;;;;;;;;;;;;;
0.0025;2500;715;;;;;;;;;;;;;;
0.005;5000;441;;;;;;;;;;;;;;
0.0075;7500;358;;;;;;;;;;;;;;
0.01;10000;233;;;;;;;;;;;;;;
0.0125;12500;207;;;;;;;;;;;;;;
0.015;15000;170;;;;;;;;;;;;;;
0.0175;17500;170;;;;;;;;;;;;;;
0.02;20000;152;;;;;;;;;;;;;;
0.0225;22500;148;;;;;;;;;;;;;;
0.025;25000;152;;;;;;;;;;;;;;
0.0275;27500;156;;;;;;;;;;;;;;
0.03;30000;171;30906;6.399;-23.215;7.891;21.875;-0.875;21.875;30458;-1.366;-6.838;-1.366;82.695;21.651;82.688
0.0325;32500;173;;;;;;;;;;;;;;
0.035;35000;170;;;;;;;;;;;;;;
0.0375;37500;157;;;;;;;;;;;;;;
0.04;40000;151;;;;;;;;;;;;;;
0.0425;42500;142;;;;;;;;;;;;;;
0.045;45000;152;;;;;;;;;;;;;;
0.0475;47500;156;;;;;;;;;;;;;;
0.05;50000;168;;;;;;;;;;;;;;
0.0525;52500;169;;;;;;;;;;;;;;
0.055;55000;168;;;;;;;;;;;;;;
0.0575;57500;152;58439;12.514;-45.106;13.932;39.594;-7.831;39.594;57974;-2.585;-13.34;-2.585;168.248;-2.182;168.241
0.06;60000;142;;;;;;;;;;;;;;
0.0625;62500;139;;;;;;;;;;;;;;
0.065;65000;141;;;;;;;;;;;;;;
0.0675;67500;154;;;;;;;;;;;;;;
0.07;70000;160;;;;;;;;;;;;;;
0.0725;72500;169;;;;;;;;;;;;;;
0.075;75000;159;;;;;;;;;;;;;;
0.0775;77500;155;;;;;;;;;;;;;;
0.08;80000;150;;;;;;;;;;;;;;
0.0825;82500;142;;;;;;;;;;;;;;
0.085;85000;149;;;;;;;;;;;;;;
0.0875;87500;155;;;;;;;;;;;;;;
0.09;90000;158;;;;;;;;;;;;;;
0.0925;92500;169;;;;;;;;;;;;;;
0.095;95000;160;;;;;;;;;;;;;;
0.0975;97500;158;;;;;;;;;;;;;;
0.1;100000;157;;;;;;;;101027;-3.859;-19.414;-3.859;244.71;0.552;244.704
0.1025;102500;144;101464;18.3;-66.019;19.646;57.302;-7.44;57.302;;;;;;;
0.105;105000;138;;;;;;;;;;;;;;
0.1075;107500;126;;;;;;;;;;;;;;
0.11;110000;156;;;;;;;;;;;;;;
0.1125;112500;169;;;;;;;;;;;;;;
0.115;115000;154;;;;;;;;;;;;;;
0.1175;117500;156;;;;;;;;;;;;;;
0.12;120000;167;;;;;;;;;;;;;;
0.1225;122500;139;;;;;;;;;;;;;;
0.125;125000;154;;;;;;;;;;;;;;
0.1275;127500;128;;;;;;;;;;;;;;
0.13;130000;155;;;;;;;;;;;;;;
0.1325;132500;152;133415;23.936;-85.715;25.215;74.561;-13.193;74.561;132968;-4.984;-25.208;-4.984;313.412;-13.038;313.406
0.135;135000;155;;;;;;;;;;;;;;
0.1375;137500;395;;;;;;;;;;;;;;
0.14;140000;254;;;;;;;;;;;;;;
0.1425;142500;174;;;;;;;;;;;;;;
0.145;145000;159;;;;;;;;;;;;;;
0.1475;147500;155;;;;;;;;;;;;;;
0.15;150000;157;;;;;;;;;;;;;;
0.1525;152500;150;;;;;;;;;;;;;;
0.155;155000;172;;;;;;;;;;;;;;
0.1575;157500;153;;;;;;;;;;;;;;
0.16;160000;142;;;;;;;;;;;;;;
0.1625;162500;155;;;;;;;;;;;;;;
0.165;165000;43;165694;29.388;-104.451;30.604;108.021;-21.283;108.021;165257;-6.046;-30.822;-6.046;385.679;-25.074;385.673
0.1675;167500;264;;;;;;;;;;;;;;
0.17;170000;174;;;;;;;;;;;;;;
0.1725;172500;158;;;;;;;;;;;;;;
0.175;175000;158;;;;;;;;;;;;;;
0.1775;177500;155;;;;;;;;;;;;;;
0.18;180000;152;;;;;;;;;;;;;;
0.1825;182500;156;;;;;;;;;;;;;;
0.185;185000;126;;;;;;;;;;;;;;
0.1875;187500;127;;;;;;;;;;;;;;
0.19;190000;139;;;;;;;;;;;;;;
0.1925;192500;167;;;;;;;;193463;-7.043;-36.095;-7.043;447.77;-33.882;447.764
0.195;195000;155;193907;34.403;-122.53;35.558;118.37;-23.281;118.37;;;;;;;
0.1975;197500;154;;;;;;;;;;;;;;
0.2;200000;141;;;;;;;;;;;;;;
0.2025;202500;137;;;;;;;;;;;;;;
0.205;205000;144;;;;;;;;;;;;;;
0.2075;207500;359;;;;;;;;;;;;;;
0.21;210000;280;;;;;;;;;;;;;;
0.2125;212500;200;;;;;;;;;;;;;;
0.215;215000;170;;;;;;;;;;;;;;
0.2175;217500;182;;;;;;;;;;;;;;
0.22;220000;167;219514;39.241;-139.474;40.337;141.326;-27.367;141.326;219070;-7.935;-41.092;-7.935;506.319;-37.876;506.314
0.2225;222500;152;;;;;;;;;;;;;;
0.225;225000;136;;;;;;;;;;;;;;
0.2275;227500;126;;;;;;;;;;;;;;
0.23;230000;155;;;;;;;;;;;;;;
0.2325;232500;152;;;;;;;;;;;;;;
0.235;235000;155;;;;;;;;;;;;;;
0.2375;237500;155;;;;;;;;;;;;;;
0.24;240000;6;240954;43.671;-155.759;44.713;162.26;-34.311;162.26;240509;-8.673;-45.845;-8.673;565.441;-46.482;565.436
0.2425;242500;266;;;;;;;;;;;;;;
0.245;245000;160;;;;;;;;;;;;;;
0.2475;247500;138;;;;;;;;;;;;;;
0.25;250000;139;;;;;;;;;;;;;;
0.2525;252500;169;;;;;;;;;;;;;;
0.255;255000;155;;;;;;;;;;;;;;
0.2575;257500;173;;;;;;;;;;;;;;
0.26;260000;143;;;;;;;;;;;;;;
0.2625;262500;154;;;;;;;;;;;;;;
0.265;265000;142;;;;;;;;;;;;;;
0.2675;267500;136;;;;;;;;;;;;;;
0.27;270000;137;269240;48.1;-171.304;49.09;177.772;-35.658;177.772;268802;-9.575;-50.421;-9.575;620.731;-55.533;620.726
0.2725;272500;398;;;;;;;;;;;;;;
0.275;275000;280;;;;;;;;;;;;;;
0.2775;277500;215;;;;;;;;;;;;;;
0.28;280000;155;;;;;;;;;;;;;;
0.2825;282500;158;;;;;;;;;;;;;;
0.285;285000;150;;;;;;;;;;;;;;
0.2875;287500;154;;;;;;;;;;;;;;
0.29;290000;157;;;;;;;;;;;;;;
0.2925;292500;144;;;;;;;;;;;;;;
0.295;295000;173;;;;;;;;;;;;;;
0.2975;297500;173;297629;52.192;-185.906;53.132;189.883;-37.813;189.883;297182;-10.286;-54.628;-10.286;672.82;-64.131;672.815
0.3;300000;382;;;;;;;;;;;;;;
0.3025;302500;287;;;;;;;;;;;;;;
0.305;305000;200;;;;;;;;;;;;;;
0.3075;307500;169;;;;;;;;;;;;;;
0.31;310000;167;;;;;;;;;;;;;;
0.3125;312500;151;;;;;;;;;;;;;;
0.315;315000;172;;;;;;;;;;;;;;
0.3175;317500;155;;;;;;;;;;;;;;
0.32;320000;152;;;;;;;;;;;;;;
0.3225;322500;157;;;;;;;;;;;;;;
0.325;325000;144;326180;56.188;-199.651;57.082;211.452;-40.297;211.452;325736;-11.047;-58.68;-11.047;726.241;-66.612;726.237
0.3275;327500;327;;;;;;;;;;;;;;
0.33;330000;203;;;;;;;;;;;;;;
0.3325;332500;189;;;;;;;;;;;;;;
0.335;335000;185;;;;;;;;;;;;;;
0.3375;337500;175;;;;;;;;;;;;;;
0.34;340000;150;;;;;;;;;;;;;;
0.3425;342500;138;;;;;;;;;;;;;;
0.345;345000;153;;;;;;;;;;;;;;
0.3475;347500;31;;;;;;;;;;;;;;
0.35;350000;253;;;;;;;;;;;;;;
0.3525;352500;190;;;;;;;;;;;;;;
0.355;355000;172;354736;59.985;-212.806;60.834;226.254;-44.845;226.254;354289;-11.763;-62.688;-11.763;774.367;-74.219;774.362
0.3575;357500;157;;;;;;;;;;;;;;
0.36;360000;169;;;;;;;;;;;;;;
0.3625;362500;137;;;;;;;;;;;;;;
0.365;365000;125;;;;;;;;;;;;;;
0.3675;367500;135;;;;;;;;;;;;;;
0.37;370000;157;;;;;;;;;;;;;;
0.3725;372500;152;;;;;;;;;;;;;;
0.375;375000;299;;;;;;;;;;;;;;
0.3775;377500;310;;;;;;;;;;;;;;
0.38;380000;204;;;;;;;;;;;;;;
0.3825;382500;173;381907;63.391;-225.26;64.197;238.566;-46.103;238.566;381468;-12.566;-66.367;-12.566;820.086;-82.758;820.082
0.385;385000;137;;;;;;;;;;;;;;
0.3875;387500;134;;;;;;;;;;;;;;
0.39;390000;138;;;;;;;;;;;;;;
0.3925;392500;151;;;;;;;;;;;;;;
0.395;395000;174;;;;;;;;;;;;;;
0.3975;397500;170;;;;;;;;;;;;;;
0.4;400000;142;;;;;;;;;;;;;;
0.4025;402500;137;402467;66.718;-237.171;67.484;255.951;-51.235;255.951;402018;-13.103;-69.82;-13.103;860.894;-86.495;860.89
0.405;405000;346;;;;;;;;;;;;;;
0.4075;407500;214;;;;;;;;;;;;;;
0.41;410000;184;;;;;;;;;;;;;;
0.4125;412500;156;;;;;;;;;;;;;;
0.415;415000;156;;;;;;;;;;;;;;
0.4175;417500;154;;;;;;;;;;;;;;
0.42;420000;171;;;;;;;;;;;;;;
0.4225;422500;155;;;;;;;;;;;;;;
0.425;425000;125;;;;;;;;;;;;;;
0.4275;427500;150;;;;;;;;;;;;;;
0.43;430000;155;430503;69.83;-248.535;70.557;268.528;-54.361;268.528;430063;-13.789;-73.124;-13.789;894.849;-84.358;894.846
0.4325;432500;392;;;;;;;;;;;;;;
0.435;435000;299;;;;;;;;;;;;;;
0.4375;437500;219;;;;;;;;;;;;;;
0.44;440000;184;;;;;;;;;;;;;;
0.4425;442500;158;;;;;;;;;;;;;;
0.445;445000;135;;;;;;;;;;;;;;
0.4475;447500;153;;;;;;;;;;;;;;
0.45;450000;137;451070;72.798;-259.349;73.489;280.039;-56.455;280.039;450623;-14.393;-76.135;-14.393;933.232;-86.703;933.228
0.4525;452500;151;;;;;;;;;;;;;;
0.455;455000;173;;;;;;;;;;;;;;
0.4575;457500;173;;;;;;;;;;;;;;
0.46;460000;170;;;;;;;;;;;;;;
0.4625;462500;343;;;;;;;;;;;;;;
0.465;465000;218;;;;;;;;;;;;;;
0.4675;467500;172;468182;75.588;-269.55;76.244;293.162;-61.07;293.162;467743;-14.973;-79.13;-14.973;968.383;-94.18;968.379
0.47;470000;158;;;;;;;;;;;;;;
0.4725;472500;169;;;;;;;;;;;;;;
0.475;475000;171;;;;;;;;;;;;;;
0.4775;477500;152;;;;;;;;;;;;;;
0.48;480000;168;;;;;;;;;;;;;;
0.4825;482500;137;;;;;;;;;;;;;;
0.485;485000;151;;;;;;;;;;;;;;
0.4875;487500;0;;;;;;;;;;;;;;
0.49;490000;327;;;;;;;;;;;;;;
0.4925;492500;232;;;;;;;;;;;;;;
0.495;495000;172;;;;;;;;;;;;;;
0.4975;497500;182;496746;78.293;-279.246;78.916;303.879;-65.454;303.879;496297;-15.578;-82.048;-15.578;1000.901;-95.158;1000.898
0.5;500000;168;;;;;;;;;;;;;;
0.5025;502500;137;;;;;;;;;;;;;;
0.505;505000;151;;;;;;;;;;;;;;
0.5075;507500;126;;;;;;;;;;;;;;
0.51;510000;363;;;;;;;;;;;;;;
0.5125;512500;222;;;;;;;;;;;;;;
0.515;515000;181;;;;;;;;;;;;;;
0.5175;517500;157;517459;80.923;-288.409;81.516;316.248;-69.181;316.248;517019;-16.202;-84.613;-16.202;1031.356;-99.588;1031.353
0.52;520000;152;;;;;;;;;;;;;;
0.5225;522500;157;;;;;;;;;;;;;;
0.525;525000;136;;;;;;;;;;;;;;
0.5275;527500;135;;;;;;;;;;;;;;
0.53;530000;141;;;;;;;;;;;;;;
0.5325;532500;152;;;;;;;;;;;;;;
0.535;535000;175;;;;;;;;;;;;;;
0.5375;537500;411;;;;;;;;;;;;;;
0.54;540000;238;;;;;;;;;;;;;;
0.5425;542500;170;;;;;;;;;;;;;;
0.545;545000;140;544487;83.337;-297.113;83.9;324.06;-76.66;324.06;544038;-16.655;-87.172;-16.655;1052.413;-95.921;1052.41
0.5475;547500;153;;;;;;;;;;;;;;
0.55;550000;158;;;;;;;;;;;;;;
0.5525;552500;153;;;;;;;;;;;;;;
0.555;555000;156;;;;;;;;;;;;;;
0.5575;557500;315;;;;;;;;;;;;;;
0.56;560000;283;;;;;;;;;;;;;;
0.5625;562500;174;;;;;;;;;;;;;;
0.565;565000;140;565200;85.539;-305.737;86.073;330.17;-78.514;330.17;564760;-17.237;-89.755;-17.237;1087.293;-105.563;1087.29
0.5675;567500;138;;;;;;;;;;;;;;
0.57;570000;138;;;;;;;;;;;;;;
0.5725;572500;169;;;;;;;;;;;;;;
0.575;575000;416;;;;;;;;;;;;;;
0.5775;577500;253;;;;;;;;;;;;;;
0.58;580000;185;;;;;;;;;;;;;;
0.5825;582500;150;;;;;;;;;;;;;;
0.585;585000;135;;;;;;;;;;;;;;
0.5875;587500;152;;;;;;;;;;;;;;
0.59;590000;154;;;;;;;;;;;;;;
0.5925;592500;152;593688;87.837;-313.599;88.346;321.099;-78.526;321.099;593241;-17.614;-92.02;-17.614;1112.553;-129.159;1112.55
0.595;595000;154;;;;;;;;;;;;;;
0.5975;597500;173;;;;;;;;;;;;;;
0.6;600000;169;;;;;;;;;;;;;;
0.6025;602500;249;;;;;;;;;;;;;;
0.605;605000;301;;;;;;;;;;;;;;
0.6075;607500;204;;;;;;;;;;;;;;
0.61;610000;156;;;;;;;;;;;;;;
0.6125;612500;171;;;;;;;;;;;;;;
0.615;615000;174;;;;;;;;;;;;;;
0.6175;617500;155;;;;;;;;;;;;;;
0.62;620000;168;621120;90.04;-321.227;90.522;334.794;-80.287;334.794;620679;-17.965;-94.214;-17.965;1146.613;-119.639;1146.61
0.6225;622500;137;;;;;;;;;;;;;;
0.625;625000;349;;;;;;;;;;;;;;
0.6275;627500;204;;;;;;;;;;;;;;
0.63;630000;160;;;;;;;;;;;;;;
0.6325;632500;174;;;;;;;;;;;;;;
0.635;635000;159;;;;;;;;;;;;;;
0.6375;637500;174;;;;;;;;;;;;;;
0.64;640000;169;;;;;;;;;;;;;;
0.6425;642500;139;641936;92.132;-328.273;92.59;335.992;-81.96;335.992;641489;-18.488;-96.421;-18.488;1157.97;-114.095;1157.967
0.645;645000;153;;;;;;;;;;;;;;
0.6475;647500;128;;;;;;;;;;;;;;
0.65;650000;140;;;;;;;;;;;;;;
0.6525;652500;334;;;;;;;;;;;;;;
0.655;655000;218;;;;;;;;;;;;;;
0.6575;657500;191;;;;;;;;;;;;;;
0.66;660000;156;;;;;;;;;;;;;;
0.6625;662500;157;;;;;;;;;;;;;;
0.665;665000;153;;;;;;;;;;;;;;
0.6675;667500;135;;;;;;;;;;;;;;
0.67;670000;157;670236;94.022;-334.954;94.457;353.755;-83.112;353.755;669796;-18.973;-98.438;-18.973;1185.384;-114.952;1185.381
0.6725;672500;364;;;;;;;;;;;;;;
0.675;675000;265;;;;;;;;;;;;;;
0.6775;677500;206;;;;;;;;;;;;;;
0.68;680000;156;;;;;;;;;;;;;;
0.6825;682500;156;;;;;;;;;;;;;;
0.685;685000;128;;;;;;;;;;;;;;
0.6875;687500;153;;;;;;;;;;;;;;
0.69;690000;155;691063;95.726;-341.386;96.139;357.504;-85.519;357.504;690616;-19.36;-100.391;-19.36;1207.49;-136.767;1207.487
0.6925;692500;142;;;;;;;;;;;;;;
0.695;695000;152;;;;;;;;;;;;;;
0.6975;697500;153;;;;;;;;;;;;;;
0.7;700000;411;;;;;;;;;;;;;;
0.7025;702500;253;;;;;;;;;;;;;;
0.705;705000;170;;;;;;;;;;;;;;
0.7075;707500;140;708435;97.515;-347.485;97.908;355.379;-87.806;355.379;707996;-19.698;-102.136;-19.698;1238.553;-146.116;1238.551
0.71;710000;139;;;;;;;;;;;;;;
0.7125;712500;171;;;;;;;;;;;;;;
0.715;715000;156;;;;;;;;;;;;;;
0.7175;717500;155;;;;;;;;;;;;;;
0.72;720000;142;;;;;;;;;;;;;;
0.7225;722500;138;;;;;;;;;;;;;;
0.725;725000;151;;;;;;;;;;;;;;
0.7275;727500;366;;;;;;;;;;;;;;
0.73;730000;256;;;;;;;;;;;;;;
0.7325;732500;189;;;;;;;;;;;;;;
0.735;735000;169;;;;;;;;;;;;;;
0.7375;737500;174;737260;99.038;-353.339;99.412;362.985;-89.54;362.985;736811;-19.957;-103.727;-19.957;1261.062;-138.373;1261.061
0.74;740000;152;;;;;;;;;;;;;;
0.7425;742500;140;;;;;;;;;;;;;;
0.745;745000;135;;;;;;;;;;;;;;
0.7475;747500;0;;;;;;;;;;;;;;
0.75;750000;311;;;;;;;;;;;;;;
0.7525;752500;234;;;;;;;;;;;;;;
0.755;755000;197;;;;;;;;;;;;;;
0.7575;757500;166;758147;100.577;-358.773;100.932;369.773;-92.063;369.773;757707;-20.307;-105.263;-20.307;1275.447;-130.142;1275.445
0.76;760000;153;;;;;;;;;;;;;;
0.7625;762500;156;;;;;;;;;;;;;;
0.765;765000;151;;;;;;;;;;;;;;
0.7675;767500;127;;;;;;;;;;;;;;
0.77;770000;139;;;;;;;;;;;;;;
0.7725;772500;169;;;;;;;;;;;;;;
0.775;775000;155;;;;;;;;;;;;;;
0.7775;777500;391;;;;;;;;;;;;;;
0.78;780000;251;;;;;;;;;;;;;;
0.7825;782500;185;;;;;;;;;;;;;;
0.785;785000;157;785522;101.916;-363.978;102.253;371.847;-91.835;371.847;785073;-20.628;-106.923;-20.628;1295.237;-133.26;1295.235
0.7875;787500;135;;;;;;;;;;;;;;
0.79;790000;156;;;;;;;;;;;;;;
0.7925;792500;168;;;;;;;;;;;;;;
0.795;795000;155;;;;;;;;;;;;;;
0.7975;797500;24;;;;;;;;;;;;;;
0.8;800000;267;;;;;;;;;;;;;;
0.8025;802500;201;;;;;;;;;;;;;;
0.805;805000;140;;;;;;;;;;;;;;
0.8075;807500;136;807646;103.433;-368.916;103.753;379.505;-95.119;379.505;807206;-20.804;-108.489;-20.804;1314.038;-150.659;1314.036
0.81;810000;156;;;;;;;;;;;;;;
0.8125;812500;151;;;;;;;;;;;;;;
0.815;815000;41;;;;;;;;;;;;;;
0.8175;817500;268;;;;;;;;;;;;;;
0.82;820000;206;;;;;;;;;;;;;;
0.8225;822500;169;;;;;;;;;;;;;;
0.825;825000;136;;;;;;;;;;;;;;
0.8275;827500;137;;;;;;;;;;;;;;
0.83;830000;139;;;;;;;;;;;;;;
0.8325;832500;152;;;;;;;;;;;;;;
0.835;835000;173;835331;104.77;-373.65;105.074;383.28;-96.05;383.28;834884;-20.954;-109.951;-20.954;1327.086;-154.939;1327.084
0.8375;837500;171;;;;;;;;;;;;;;
0.84;840000;143;;;;;;;;;;;;;;
0.8425;842500;155;;;;;;;;;;;;;;
0.845;845000;317;;;;;;;;;;;;;;
0.8475;847500;218;;;;;;;;;;;;;;
0.85;850000;157;;;;;;;;;;;;;;
0.8525;852500;154;;;;;;;;;;;;;;
0.855;855000;155;;;;;;;;;;;;;;
0.8575;857500;154;;;;;;;;;;;;;;
0.86;860000;151;;;;;;;;;;;;;;
0.8625;862500;136;863023;106.01;-377.989;106.299;396.491;-100.435;396.491;862583;-21.224;-111.017;-21.224;1340.357;-142.817;1340.355
0.865;865000;408;;;;;;;;;;;;;;
0.8675;867500;231;;;;;;;;;;;;;;
0.87;870000;189;;;;;;;;;;;;;;
0.8725;872500;158;;;;;;;;;;;;;;
0.875;875000;158;;;;;;;;;;;;;;
0.8775;877500;174;;;;;;;;;;;;;;
0.88;880000;159;;;;;;;;;;;;;;
0.8825;882500;137;;;;;;;;883739;-21.535;-112.231;-21.535;1358.214;-136.551;1358.212
0.885;885000;125;884186;107.175;-382.294;107.45;399.416;-98.476;399.416;;;;;;;
0.8875;887500;127;;;;;;;;;;;;;;
0.89;890000;157;;;;;;;;;;;;;;
0.8925;892500;410;;;;;;;;;;;;;;
0.895;895000;253;;;;;;;;;;;;;;
0.8975;897500;189;;;;;;;;;;;;;;
0.9;900000;157;;;;;;;;;;;;;;
0.9025;902500;157;;;;;;;;;;;;;;
0.905;905000;126;;;;;;;;;;;;;;
0.9075;907500;126;907376;108.203;-386.311;108.464;404.383;-98.365;404.383;906936;-21.605;-113.458;-21.605;1377.366;-149.411;1377.364
0.91;910000;137;;;;;;;;;;;;;;
0.9125;912500;142;;;;;;;;;;;;;;
0.915;915000;379;;;;;;;;;;;;;;
0.9175;917500;236;;;;;;;;;;;;;;
0.92;920000;190;;;;;;;;;;;;;;
0.9225;922500;142;;;;;;;;;;;;;;
0.925;925000;136;;;;;;;;;;;;;;
0.9275;927500;153;;;;;;;;;;;;;;
0.93;930000;157;;;;;;;;;;;;;;
0.9325;932500;152;933159;109.277;-390.297;109.525;404.289;-97.384;404.289;932710;-21.733;-114.537;-21.733;1394.247;-152.44;1394.246
0.935;935000;155;;;;;;;;;;;;;;
0.9375;937500;154;;;;;;;;;;;;;;
0.94;940000;167;;;;;;;;;;;;;;
0.9425;942500;381;;;;;;;;;;;;;;
0.945;945000;216;;;;;;;;;;;;;;
0.9475;947500;156;;;;;;;;;;;;;;
0.95;950000;166;;;;;;;;;;;;;;
0.9525;952500;153;;;;;;;;;;;;;;
0.955;955000;172;;;;;;;;;;;;;;
0.9575;957500;153;;;;;;;;;;;;;;
0.96;960000;140;;;;;;;;;;;;;;
0.9625;962500;153;963353;110.2;-394.011;110.436;404.637;-97.327;404.637;962913;-21.945;-115.734;-21.945;1407.66;-145.693;1407.659
0.965;965000;124;;;;;;;;;;;;;;
0.9675;967500;152;;;;;;;;;;;;;;
0.97;970000;409;;;;;;;;;;;;;;
0.9725;972500;267;;;;;;;;;;;;;;
0.975;975000;206;;;;;;;;;;;;;;
0.9775;977500;160;;;;;;;;;;;;;;
0.98;980000;151;;;;;;;;;;;;;;
0.9825;982500;136;;;;;;;;;;;;;;
0.985;985000;143;;;;;;;;;;;;;;
0.9875;987500;153;;;;;;;;;;;;;;
0.99;990000;282;;;;;;;;;;;;;;
0.9925;992500;318;993477;111.077;-397.375;111.3;412.405;-97.273;412.405;993029;-22.123;-116.847;-22.123;1423.464;-148.034;1423.463
0.995;995000;232;;;;;;;;;;;;;;
0.9975;997500;190;;;;;;;;;;;;;;
1.0;1000000;169;;;;;;;;;;;;;;
1.0025;1002500;138;;;;;;;;;;;;;;
1.005;1005000;151;;;;;;;;;;;;;;
1.0075;1007500;125;;;;;;;;;;;;;;
1.01;1010000;156;;;;;;;;;;;;;;
1.0125;1012500;170;;;;;;;;;;;;;;
1.015;1015000;348;;;;;;;;;;;;;;
1.0175;1017500;251;;;;;;;;;;;;;;
1.02;1020000;192;;;;;;;;;;;;;;
1.0225;1022500;153;1022209;112.05;-400.661;112.262;410.597;-97.66;410.597;1021769;-22.243;-117.903;-22.243;1439.354;-159.445;1439.353
1.025;1025000;156;;;;;;;;;;;;;;
1.0275;1027500;136;;;;;;;;;;;;;;
1.03;1030000;140;;;;;;;;;;;;;;
1.0325;1032500;171;;;;;;;;;;;;;;
1.035;1035000;154;;;;;;;;;;;;;;
1.0375;1037500;155;;;;;;;;;;;;;;
1.04;1040000;398;;;;;;;;;;;;;;
1.0425;1042500;235;1043734;112.944;-403.772;113.146;417.63;-100.214;417.63;1043287;-22.357;-118.804;-22.357;1450.948;-161.535;1450.948
1.045;1045000;167;;;;;;;;;;;;;;
1.0475;1047500;142;;;;;;;;;;;;;;
1.05;1050000;141;;;;;;;;;;;;;;
1.0525;1052500;152;;;;;;;;;;;;;;
1.055;1055000;172;;;;;;;;;;;;;;
1.0575;1057500;172;;;;;;;;;;;;;;
1.06;1060000;141;;;;;;;;;;;;;;
1.0625;1062500;136;;;;;;;;;;;;;;
1.065;1065000;126;;;;;;;;;;;;;;
1.0675;1067500;151;;;;;;;;;;;;;;
1.07;1070000;55;;;;;;;;;;;;;;
1.0725;1072500;282;;;;;;;;1073663;-22.544;-119.708;-22.544;1461.526;-162.646;1461.525
1.075;1075000;198;1074103;113.714;-406.775;113.906;420.373;-98.703;420.373;;;;;;;
1.0775;1077500;167;;;;;;;;;;;;;;
1.08;1080000;152;;;;;;;;;;;;;;
1.0825;1082500;153;;;;;;;;;;;;;;
1.085;1085000;151;;;;;;;;;;;;;;
1.0875;1087500;125;;;;;;;;;;;;;;
1.09;1090000;138;;;;;;;;;;;;;;
1.0925;1092500;141;;;;;;;;;;;;;;
1.095;1095000;152;;;;;;;;;;;;;;
1.0975;1097500;172;;;;;;;;;;;;;;
1.1;1100000;220;;;;;;;;;;;;;;
1.1025;1102500;250;1102939;114.464;-409.55;114.646;424.292;-101.206;424.292;1102490;-22.723;-120.652;-22.723;1472.012;-161.951;1472.011
1.105;1105000;186;;;;;;;;;;;;;;
1.1075;1107500;142;;;;;;;;;;;;;;
1.11;1110000;157;;;;;;;;;;;;;;
1.1125;1112500;152;;;;;;;;;;;;;;
1.115;1115000;154;;;;;;;;;;;;;;
1.1175;1117500;172;;;;;;;;;;;;;;
1.12;1120000;170;;;;;;;;;;;;;;
1.1225;1122500;138;;;;;;;;;;;;;;
1.125;1125000;135;1124535;115.298;-412.289;115.471;424.078;-103.145;424.078;1124095;-22.825;-121.555;-22.825;1476.287;-169.166;1476.286
1.1275;1127500;153;;;;;;;;;;;;;;
1.13;1130000;346;;;;;;;;;;;;;;
1.1325;1132500;238;;;;;;;;;;;;;;
1.135;1135000;176;;;;;;;;;;;;;;
1.1375;1137500;185;;;;;;;;;;;;;;
1.14;1140000;172;;;;;;;;;;;;;;
1.1425;1142500;139;;;;;;;;;;;;;;
1.145;1145000;152;;;;;;;;;;;;;;
1.1475;1147500;126;;;;;;;;;;;;;;
1.15;1150000;19;;;;;;;;;;;;;;
1.1525;1152500;296;;;;;;;;;;;;;;
1.155;1155000;202;1155006;116.042;-414.848;116.206;426.499;-104.113;426.499;1154557;-23.007;-122.279;-23.007;1482.097;-171.645;1482.096
1.1575;1157500;168;;;;;;;;;;;;;;
1.16;1160000;170;;;;;;;;;;;;;;
1.1625;1162500;140;;;;;;;;;;;;;;
1.165;1165000;152;;;;;;;;;;;;;;
1.1675;1167500;136;;;;;;;;;;;;;;
1.17;1170000;139;;;;;;;;;;;;;;
1.1725;1172500;152;;;;;;;;;;;;;;
1.175;1175000;173;;;;;;;;;;;;;;
1.1775;1177500;173;;;;;;;;;;;;;;
1.18;1180000;18;;;;;;;;;;;;;;
1.1825;1182500;300;;;;;;;;1183559;-23.217;-122.85;-23.217;1490.243;-167.438;1490.242
1.185;1185000;200;1183999;116.785;-417.17;116.941;431.861;-104.158;431.861;;;;;;;
1.1875;1187500;149;;;;;;;;;;;;;;
1.19;1190000;158;;;;;;;;;;;;;;
1.1925;1192500;144;;;;;;;;;;;;;;
1.195;1195000;174;;;;;;;;;;;;;;
1.1975;1197500;174;;;;;;;;;;;;;;
1.2;1200000;142;;;;;;;;;;;;;;
1.2025;1202500;154;;;;;;;;;;;;;;
1.205;1205000;151;1205523;117.436;-419.491;117.585;435.206;-105.075;435.206;1205076;-23.331;-123.467;-23.331;1497.98;-168.253;1497.979
1.2075;1207500;154;;;;;;;;;;;;;;
1.21;1210000;378;;;;;;;;;;;;;;
1.2125;1212500;249;;;;;;;;;;;;;;
1.215;1215000;190;;;;;;;;;;;;;;
1.2175;1217500;171;;;;;;;;;;;;;;
1.22;1220000;173;;;;;;;;;;;;;;
1.2225;1222500;141;;;;;;;;;;;;;;
1.225;1225000;135;;;;;;;;;;;;;;
1.2275;1227500;135;;;;;;;;;;;;;;
1.23;1230000;139;;;;;;;;;;;;;;
1.2325;1232500;318;;;;;;;;;;;;;;
1.235;1235000;219;1235979;118.055;-421.624;118.196;439.695;-107.258;439.695;1235539;-23.488;-124.095;-23.488;1507.081;-171.653;1507.081
1.2375;1237500;182;;;;;;;;;;;;;;
1.24;1240000;156;;;;;;;;;;;;;;
1.2425;1242500;139;;;;;;;;;;;;;;
1.245;1245000;153;;;;;;;;;;;;;;
1.2475;1247500;136;;;;;;;;;;;;;;
1.25;1250000;141;;;;;;;;;;;;;;
1.2525;1252500;152;;;;;;;;;;;;;;
1.255;1255000;157;;;;;;;;;;;;;;
1.2575;1257500;175;;;;;;;;;;;;;;
1.26;1260000;153;;;;;;;;;;;;;;
1.2625;1262500;344;;;;;;;;;;;;;;
1.265;1265000;206;1264989;118.63;-423.875;118.764;445.711;-106.271;445.711;1264540;-23.485;-124.716;-23.485;1515.727;-174.883;1515.727
1.2675;1267500;158;;;;;;;;;;;;;;
1.27;1270000;153;;;;;;;;;;;;;;
1.2725;1272500;155;;;;;;;;;;;;;;
1.275;1275000;158;;;;;;;;;;;;;;
1.2775;1277500;158;;;;;;;;;;;;;;
1.28;1280000;155;;;;;;;;;;;;;;
1.2825;1282500;158;;;;;;;;;;;;;;
1.285;1285000;136;;;;;;;;1286146;-23.513;-125.337;-23.513;1518.691;-171.389;1518.69
1.2875;1287500;154;1286585;119.183;-425.873;119.31;451.425;-106.207;451.425;;;;;;;
1.29;1290000;17;;;;;;;;;;;;;;
1.2925;1292500;285;;;;;;;;;;;;;;
1.295;1295000;206;;;;;;;;;;;;;;
1.2975;1297500;172;;;;;;;;;;;;;;
1.3;1300000;152;;;;;;;;;;;;;;
1.3025;1302500;158;;;;;;;;;;;;;;
1.305;1305000;155;;;;;;;;;;;;;;
1.3075;1307500;137;;;;;;;;;;;;;;
1.31;1310000;167;1311165;119.69;-427.747;119.811;448.541;-107.022;448.541;1310716;-23.722;-125.835;-23.722;1522.381;-167.194;1522.381
1.3125;1312500;384;;;;;;;;;;;;;;
1.315;1315000;280;;;;;;;;;;;;;;
1.3175;1317500;216;;;;;;;;;;;;;;
1.32;1320000;159;;;;;;;;;;;;;;
1.3225;1322500;140;;;;;;;;;;;;;;
1.325;1325000;154;;;;;;;;;;;;;;
1.3275;1327500;153;;;;;;;;;;;;;;
1.33;1330000;157;;;;;;;;;;;;;;
1.3325;1332500;152;;;;;;;;;;;;;;
1.335;1335000;154;;;;;;;;;;;;;;
1.3375;1337500;172;1337190;120.251;-429.626;120.366;451.052;-106.483;451.052;1336750;-23.756;-126.302;-23.756;1532.887;-170.21;1532.887
1.34;1340000;158;;;;;;;;;;;;;;
1.3425;1342500;335;;;;;;;;;;;;;;
1.345;1345000;237;;;;;;;;;;;;;;
1.3475;1347500;188;;;;;;;;;;;;;;
1.35;1350000;153;;;;;;;;;;;;;;
1.3525;1352500;152;;;;;;;;;;;;;;
1.355;1355000;175;;;;;;;;;;;;;;
1.3575;1357500;154;;;;;;;;;;;;;;
1.36;1360000;168;;;;;;;;;;;;;;
1.3625;1362500;138;;;;;;;;;;;;;;
1.365;1365000;152;;;;;;;;;;;;;;
1.3675;1367500;152;1367660;120.765;-431.306;120.874;457.374;-107.284;457.374;1367213;-23.91;-126.794;-23.91;1535.868;-169.574;1535.867
1.37;1370000;157;;;;;;;;;;;;;;
1.3725;1372500;366;;;;;;;;;;;;;;
1.375;1375000;234;;;;;;;;;;;;;;
1.3775;1377500;202;;;;;;;;;;;;;;
1.38;1380000;157;;;;;;;;;;;;;;
1.3825;1382500;139;;;;;;;;;;;;;;
1.385;1385000;151;;;;;;;;;;;;;;
1.3875;1387500;134;;;;;;;;;;;;;;
1.39;1390000;137;;;;;;;;;;;;;;
1.3925;1392500;361;;;;;;;;;;;;;;
1.395;1395000;300;;;;;;;;;;;;;;
1.3975;1397500;208;1398116;121.217;-432.817;121.321;460.755;-108.045;460.755;1397676;-23.91;-127.232;-23.91;1540.887;-161.97;1540.886
1.4;1400000;169;;;;;;;;;;;;;;
1.4025;1402500;142;;;;;;;;;;;;;;
1.405;1405000;135;;;;;;;;;;;;;;
1.4075;1407500;136;;;;;;;;;;;;;;
1.41;1410000;155;;;;;;;;;;;;;;
1.4125;1412500;170;;;;;;;;;;;;;;
1.415;1415000;173;;;;;;;;;;;;;;
1.4175;1417500;333;;;;;;;;;;;;;;
1.42;1420000;266;;;;;;;;;;;;;;
1.4225;1422500;200;;;;;;;;;;;;;;
1.425;1425000;141;;;;;;;;;;;;;;
1.4275;1427500;135;1427124;121.616;-434.441;121.715;463.093;-110.955;463.093;1426677;-24.008;-127.702;-24.008;1545.655;-159.559;1545.655
1.43;1430000;137;;;;;;;;;;;;;;
1.4325;1432500;142;;;;;;;;;;;;;;
1.435;1435000;171;;;;;;;;;;;;;;
1.4375;1437500;170;;;;;;;;;;;;;;
1.44;1440000;142;;;;;;;;;;;;;;
1.4425;1442500;136;;;;;;;;;;;;;;
1.445;1445000;313;;;;;;;;;;;;;;
1.4475;1447500;217;1448721;121.88;-436.021;121.973;460.938;-109.782;460.938;1448281;-24.222;-128.033;-24.222;1551.935;-160.331;1551.934
1.45;1450000;156;;;;;;;;;;;;;;
1.4525;1452500;170;;;;;;;;;;;;;;
1.455;1455000;155;;;;;;;;;;;;;;
1.4575;1457500;154;;;;;;;;;;;;;;
1.46;1460000;167;;;;;;;;;;;;;;
1.4625;1462500;137;;;;;;;;;;;;;;
1.465;1465000;152;;;;;;;;;;;;;;
1.4675;1467500;127;;;;;;;;;;;;;;
1.47;1470000;156;;;;;;;;;;;;;;
1.4725;1472500;169;;;;;;;;;;;;;;
1.475;1475000;381;;;;;;;;;;;;;;
1.4775;1477500;254;;;;;;;;1478657;-24.207;-128.311;-24.207;1559.213;-163.252;1559.213
1.48;1480000;192;1479106;122.276;-437.467;122.365;461.516;-111.731;461.516;;;;;;;
1.4825;1482500;168;;;;;;;;;;;;;;
1.485;1485000;137;;;;;;;;;;;;;;
1.4875;1487500;136;;;;;;;;;;;;;;
1.49;1490000;140;;;;;;;;;;;;;;
1.4925;1492500;152;;;;;;;;;;;;;;
1.495;1495000;172;;;;;;;;;;;;;;
1.4975;1497500;153;;;;;;;;;;;;;;
1.5;1500000;153;;;;;;;;;;;;;;
1.5025;1502500;137;;;;;;;;;;;;;;
1.505;1505000;391;;;;;;;;;;;;;;
1.5075;1507500;251;1508012;122.683;-438.676;122.767;463.378;-110.519;463.378;1507571;-24.192;-128.807;-24.192;1563.94;-163.402;1563.94
1.51;1510000;169;;;;;;;;;;;;;;
1.5125;1512500;176;;;;;;;;;;;;;;
1.515;1515000;157;;;;;;;;;;;;;;
1.5175;1517500;173;;;;;;;;;;;;;;
1.52;1520000;168;;;;;;;;;;;;;;
1.5225;1522500;137;;;;;;;;;;;;;;
1.525;1525000;152;;;;;;;;;;;;;;
1.5275;1527500;154;;;;;;;;;;;;;;
1.53;1530000;157;1529623;123.113;-440.02;123.193;465.146;-109.368;465.146;1529176;-24.325;-129.107;-24.325;1566.243;-162.67;1566.243
1.5325;1532500;172;;;;;;;;;;;;;;
1.535;1535000;347;;;;;;;;;;;;;;
1.5375;1537500;246;;;;;;;;;;;;;;
1.54;1540000;189;;;;;;;;;;;;;;
1.5425;1542500;142;;;;;;;;;;;;;;
1.545;1545000;153;;;;;;;;;;;;;;
1.5475;1547500;136;;;;;;;;;;;;;;
1.55;1550000;158;;;;;;;;;;;;;;
1.5525;1552500;152;;;;;;;;;;;;;;
1.555;1555000;40;;;;;;;;;;;;;;
1.5575;1557500;282;;;;;;;;;;;;;;
1.56;1560000;189;1560079;123.447;-441.187;123.523;471.202;-107.837;471.202;1559638;-24.334;-129.435;-24.334;1572.368;-164.161;1572.368
1.5625;1562500;153;;;;;;;;;;;;;;
1.565;1565000;137;;;;;;;;;;;;;;
1.5675;1567500;155;;;;;;;;;;;;;;
1.57;1570000;141;;;;;;;;;;;;;;
1.5725;1572500;142;;;;;;;;;;;;;;
1.575;1575000;172;;;;;;;;;;;;;;
1.5775;1577500;152;;;;;;;;;;;;;;
1.58;1580000;142;;;;;;;;;;;;;;
1.5825;1582500;138;;;;;;;;;;;;;;
1.585;1585000;20;;;;;;;;;;;;;;
1.5875;1587500;297;;;;;;;;1588640;-24.393;-129.752;-24.393;1580.812;-169.516;1580.812
1.59;1590000;189;1589087;123.698;-442.375;123.771;471.704;-107.258;471.704;;;;;;;
1.5925;1592500;185;;;;;;;;;;;;;;
1.595;1595000;165;;;;;;;;;;;;;;
1.5975;1597500;154;;;;;;;;;;;;;;
1.6;1600000;168;;;;;;;;;;;;;;
1.6025;1602500;156;;;;;;;;;;;;;;
1.605;1605000;153;;;;;;;;;;;;;;
1.6075;1607500;136;;;;;;;;;;;;;;
1.61;1610000;139;1610684;124.016;-443.595;124.085;469.556;-106.707;469.556;1610244;-24.503;-130.011;-24.503;1587.084;-171.977;1587.084
1.6125;1612500;170;;;;;;;;;;;;;;
1.615;1615000;384;;;;;;;;;;;;;;
1.6175;1617500;251;;;;;;;;;;;;;;
1.62;1620000;183;;;;;;;;;;;;;;
1.6225;1622500;144;;;;;;;;;;;;;;
1.625;1625000;154;;;;;;;;;;;;;;
1.6275;1627500;152;;;;;;;;;;;;;;
1.63;1630000;137;;;;;;;;;;;;;;
1.6325;1632500;143;;;;;;;;;;;;;;
1.635;1635000;153;;;;;;;;;;;;;;
1.6375;1637500;329;;;;;;;;;;;;;;
1.64;1640000;216;1641154;124.434;-444.747;124.499;465.329;-105.31;465.329;1640707;-24.51;-130.404;-24.51;1588.667;-173.441;1588.667
1.6425;1642500;157;;;;;;;;;;;;;;
1.645;1645000;136;;;;;;;;;;;;;;
1.6475;1647500;154;;;;;;;;;;;;;;
1.65;1650000;139;;;;;;;;;;;;;;
1.6525;1652500;169;;;;;;;;;;;;;;
1.655;1655000;153;;;;;;;;;;;;;;
1.6575;1657500;170;;;;;;;;;;;;;;
1.66;1660000;167;;;;;;;;;;;;;;
1.6625;1662500;136;;;;;;;;;;;;;;
1.665;1665000;126;;;;;;;;;;;;;;
1.6675;1667500;365;;;;;;;;;;;;;;
1.67;1670000;238;1669981;124.678;-445.733;124.74;462.187;-106.607;462.187;1669541;-24.498;-130.654;-24.498;1594.109;-176.144;1594.109
1.6725;1672500;190;;;;;;;;;;;;;;
1.675;1675000;168;;;;;;;;;;;;;;
1.6775;1677500;174;;;;;;;;;;;;;;
1.68;1680000;151;;;;;;;;;;;;;;
1.6825;1682500;155;;;;;;;;;;;;;;
1.685;1685000;152;;;;;;;;;;;;;;
1.6875;1687500;133;;;;;;;;;;;;;;
1.69;1690000;158;;;;;;;;1691139;-24.451;-131.039;-24.451;1600.154;-174.337;1600.153
1.6925;1692500;169;1691587;125.014;-446.62;125.073;462.265;-107.839;462.265;;;;;;;
1.695;1695000;364;;;;;;;;;;;;;;
1.6975;1697500;316;;;;;;;;;;;;;;
1.7;1700000;219;;;;;;;;;;;;;;
1.7025;1702500;170;;;;;;;;;;;;;;
1.705;1705000;135;;;;;;;;;;;;;;
1.7075;1707500;152;;;;;;;;;;;;;;
1.71;1710000;155;;;;;;;;;;;;;;
1.7125;1712500;141;;;;;;;;;;;;;;
1.715;1715000;153;1716150;125.199;-447.408;125.255;460.59;-107.259;460.59;1715710;-24.649;-131.405;-24.649;1601.521;-172.182;1601.521
1.7175;1717500;396;;;;;;;;;;;;;;
1.72;1720000;265;;;;;;;;;;;;;;
1.7225;1722500;185;;;;;;;;;;;;;;
1.725;1725000;139;;;;;;;;;;;;;;
1.7275;1727500;127;;;;;;;;;;;;;;
1.73;1730000;139;;;;;;;;;;;;;;
1.7325;1732500;169;;;;;;;;;;;;;;
1.735;1735000;155;;;;;;;;;;;;;;
1.7375;1737500;142;;;;;;;;;;;;;;
1.74;1740000;142;;;;;;;;;;;;;;
1.7425;1742500;154;1742105;125.405;-448.059;125.458;459.435;-105.834;459.435;1741656;-24.661;-131.63;-24.661;1605.882;-180.636;1605.882
1.745;1745000;124;;;;;;;;;;;;;;
1.7475;1747500;4;;;;;;;;;;;;;;
1.75;1750000;255;;;;;;;;;;;;;;
1.7525;1752500;205;;;;;;;;;;;;;;
1.755;1755000;166;;;;;;;;;;;;;;
1.7575;1757500;173;;;;;;;;;;;;;;
1.76;1760000;141;;;;;;;;;;;;;;
1.7625;1762500;136;;;;;;;;;;;;;;
1.765;1765000;144;;;;;;;;;;;;;;
1.7675;1767500;142;;;;;;;;;;;;;;
1.77;1770000;137;;;;;;;;;;;;;;
1.7725;1772500;144;1772560;125.716;-448.806;125.767;446.963;-107.542;446.963;1772120;-24.575;-131.758;-24.575;1610.026;-189.104;1610.026
1.775;1775000;153;;;;;;;;;;;;;;
1.7775;1777500;376;;;;;;;;;;;;;;
1.78;1780000;221;;;;;;;;;;;;;;
1.7825;1782500;167;;;;;;;;;;;;;;
1.785;1785000;137;;;;;;;;;;;;;;
1.7875;1787500;135;;;;;;;;;;;;;;
1.79;1790000;157;;;;;;;;;;;;;;
1.7925;1792500;152;;;;;;;;;;;;;;
1.795;1795000;173;;;;;;;;;;;;;;
1.7975;1797500;363;;;;;;;;;;;;;;
1.8;1800000;287;;;;;;;;;;;;;;
1.8025;1802500;187;1803032;126.11;-449.582;126.158;450.428;-109.603;450.428;1802583;-24.609;-131.972;-24.609;1603.025;-178.774;1603.024
1.805;1805000;152;;;;;;;;;;;;;;
1.8075;1807500;137;;;;;;;;;;;;;;
1.81;1810000;139;;;;;;;;;;;;;;
1.8125;1812500;152;;;;;;;;;;;;;;
1.815;1815000;155;;;;;;;;;;;;;;
1.8175;1817500;157;;;;;;;;;;;;;;
1.82;1820000;169;;;;;;;;;;;;;;
1.8225;1822500;59;;;;;;;;;;;;;;
1.825;1825000;270;;;;;;;;;;;;;;
1.8275;1827500;171;;;;;;;;;;;;;;
1.83;1830000;154;;;;;;;;;;;;;;
1.8325;1832500;152;1832024;126.179;-450.521;126.225;468.156;-112.872;468.156;1831584;-24.91;-132.437;-24.91;1606.436;-156.273;1606.436
1.835;1835000;155;;;;;;;;;;;;;;
1.8375;1837500;174;;;;;;;;;;;;;;
1.84;1840000;142;;;;;;;;;;;;;;
1.8425;1842500;137;;;;;;;;;;;;;;
1.845;1845000;151;;;;;;;;;;;;;;
1.8475;1847500;127;;;;;;;;;;;;;;
1.85;1850000;342;;;;;;;;;;;;;;
1.8525;1852500;216;1853635;126.354;-450.894;126.398;476.686;-115.104;476.686;1853188;-24.963;-132.727;-24.963;1610.552;-165.521;1610.551
1.855;1855000;190;;;;;;;;;;;;;;
1.8575;1857500;173;;;;;;;;;;;;;;
1.86;1860000;142;;;;;;;;;;;;;;
1.8625;1862500;152;;;;;;;;;;;;;;
1.865;1865000;123;;;;;;;;;;;;;;
1.8675;1867500;151;;;;;;;;;;;;;;
1.87;1870000;153;;;;;;;;;;;;;;
1.8725;1872500;169;;;;;;;;;;;;;;
1.875;1875000;171;;;;;;;;;;;;;;
1.8775;1877500;171;;;;;;;;;;;;;;
1.88;1880000;366;;;;;;;;;;;;;;
1.8825;1882500;207;;;;;;;;1883478;-24.935;-133.075;-24.935;1618.836;-178.683;1618.836
1.885;1885000;154;1883918;126.49;-451.603;126.532;463.352;-116.786;463.352;;;;;;;
1.8875;1887500;156;;;;;;;;;;;;;;
1.89;1890000;139;;;;;;;;;;;;;;
1.8925;1892500;169;;;;;;;;;;;;;;
1.895;1895000;173;;;;;;;;;;;;;;
1.8975;1897500;172;;;;;;;;;;;;;;
1.9;1900000;158;;;;;;;;;;;;;;
1.9025;1902500;127;;;;;;;;;;;;;;
1.905;1905000;127;;;;;;;;;;;;;;
1.9075;1907500;135;;;;;;;;;;;;;;
1.91;1910000;391;;;;;;;;;;;;;;
1.9125;1912500;249;1912839;126.772;-452.288;126.811;474.747;-114.009;474.747;1912392;-25.092;-133.168;-25.092;1614.02;-172.811;1614.019
1.915;1915000;191;;;;;;;;;;;;;;
1.9175;1917500;188;;;;;;;;;;;;;;
1.92;1920000;170;;;;;;;;;;;;;;
1.9225;1922500;155;;;;;;;;;;;;;;
1.925;1925000;127;;;;;;;;;;;;;;
1.9275;1927500;127;;;;;;;;;;;;;;
1.93;1930000;157;;;;;;;;;;;;;;
1.9325;1932500;169;;;;;;;;;;;;;;
1.935;1935000;172;1934436;126.936;-452.927;126.973;480.322;-110.496;480.322;1933996;-25.1;-133.274;-25.1;1620.819;-168.546;1620.818
1.9375;1937500;152;;;;;;;;;;;;;;
1.94;1940000;313;;;;;;;;;;;;;;
1.9425;1942500;216;;;;;;;;;;;;;;
1.945;1945000;152;;;;;;;;;;;;;;
1.9475;1947500;138;;;;;;;;;;;;;;
1.95;1950000;139;;;;;;;;;;;;;;
1.9525;1952500;144;;;;;;;;;;;;;;
1.955;1955000;171;;;;;;;;;;;;;;
1.9575;1957500;155;;;;;;;;;;;;;;
1.96;1960000;4;;;;;;;;;;;;;;
1.9625;1962500;252;;;;;;;;;;;;;;
1.965;1965000;168;1964734;127.019;-453.436;127.054;476.431;-113.284;476.431;1964286;-25.223;-133.479;-25.223;1619.403;-174.993;1619.403
1.9675;1967500;141;;;;;;;;;;;;;;
1.97;1970000;141;;;;;;;;;;;;;;
1.9725;1972500;168;;;;;;;;;;;;;;
1.975;1975000;154;;;;;;;;;;;;;;
1.9775;1977500;152;;;;;;;;;;;;;;
1.98;1980000;159;;;;;;;;;;;;;;
1.9825;1982500;154;;;;;;;;;;;;;;
1.985;1985000;125;;;;;;;;;;;;;;
1.9875;1987500;135;;;;;;;;;;;;;;
1.99;1990000;44;;;;;;;;;;;;;;
1.9925;1992500;284;1993727;127.195;-454.036;127.228;483.672;-113.745;483.672;1993287;-25.194;-133.753;-25.194;1625.495;-176.744;1625.495
1.995;1995000;204;;;;;;;;;;;;;;
1.9975;1997500;170;;;;;;;;;;;;;;
2.0;2000000;150;;;;;;;;;;;;;;
2.0025;2002500;155;;;;;;;;;;;;;;
2.005;2005000;126;;;;;;;;;;;;;;
2.0075;2007500;143;;;;;;;;;;;;;;
2.01;2010000;156;;;;;;;;;;;;;;
2.0125;2012500;152;;;;;;;;;;;;;;
2.015;2015000;174;2015340;127.411;-454.392;127.443;479.613;-115.058;479.613;2014891;-25.283;-133.842;-25.283;1617.72;-178.407;1617.72
2.0175;2017500;154;;;;;;;;;;;;;;
2.02;2020000;391;;;;;;;;;;;;;;
2.0225;2022500;220;;;;;;;;;;;;;;
2.025;2025000;173;;;;;;;;;;;;;;
2.0275;2027500;155;;;;;;;;;;;;;;
2.03;2030000;139;;;;;;;;;;;;;;
2.0325;2032500;168;;;;;;;;;;;;;;
2.035;2035000;174;;;;;;;;;;;;;;
2.0375;2037500;155;;;;;;;;;;;;;;
2.04;2040000;0;;;;;;;;;;;;;;
2.0425;2042500;299;;;;;;;;;;;;;;
2.045;2045000;186;2045794;127.519;-454.846;127.549;496.757;-118.055;496.757;2045354;-25.379;-134.025;-25.379;1624.334;-150.236;1624.334
2.0475;2047500;143;;;;;;;;;;;;;;
2.05;2050000;141;;;;;;;;;;;;;;
2.0525;2052500;171;;;;;;;;;;;;;;
2.055;2055000;156;;;;;;;;;;;;;;
2.0575;2057500;173;;;;;;;;;;;;;;
2.06;2060000;169;;;;;;;;;;;;;;
2.0625;2062500;157;;;;;;;;;;;;;;
2.065;2065000;154;;;;;;;;;;;;;;
2.0675;2067500;134;;;;;;;;;;;;;;
2.07;2070000;140;;;;;;;;;;;;;;
2.0725;2072500;352;;;;;;;;;;;;;;
2.075;2075000;232;2074802;127.462;-455.302;127.491;493.357;-117.402;493.357;2074355;-25.55;-134.205;-25.55;1618.368;-151.037;1618.368
2.0775;2077500;183;;;;;;;;;;;;;;
2.08;2080000;154;;;;;;;;;;;;;;
2.0825;2082500;157;;;;;;;;;;;;;;
2.085;2085000;154;;;;;;;;;;;;;;
2.0875;2087500;136;;;;;;;;;;;;;;
2.09;2090000;141;;;;;;;;;;;;;;
2.0925;2092500;152;;;;;;;;;;;;;;
2.095;2095000;175;;;;;;;;2095959;-25.779;-134.363;-25.779;1626.699;-182.86;1626.699
2.0975;2097500;156;2096399;127.555;-455.754;127.582;494.939;-119.407;494.939;;;;;;;
2.1;2100000;329;;;;;;;;;;;;;;
2.1025;2102500;263;;;;;;;;;;;;;;
2.105;2105000;173;;;;;;;;;;;;;;
2.1075;2107500;141;;;;;;;;;;;;;;
2.11;2110000;159;;;;;;;;;;;;;;
2.1125;2112500;170;;;;;;;;;;;;;;
2.115;2115000;155;;;;;;;;;;;;;;
2.1175;2117500;153;;;;;;;;;;;;;;
2.12;2120000;167;2120978;128.052;-456.048;128.078;472.38;-116.937;472.38;2120531;-25.594;-134.379;-25.594;1627.177;-209.592;1627.177
2.1225;2122500;366;;;;;;;;;;;;;;
2.125;2125000;219;;;;;;;;;;;;;;
2.1275;2127500;157;;;;;;;;;;;;;;
2.13;2130000;153;;;;;;;;;;;;;;
2.1325;2132500;170;;;;;;;;;;;;;;
2.135;2135000;174;;;;;;;;;;;;;;
2.1375;2137500;154;;;;;;;;;;;;;;
2.14;2140000;141;;;;;;;;;;;;;;
2.1425;2142500;136;;;;;;;;;;;;;;
2.145;2145000;143;;;;;;;;;;;;;;
2.1475;2147500;153;2147005;128.189;-456.566;128.213;489.011;-115.465;489.011;2146564;-25.485;-134.614;-25.485;1626.318;-185.112;1626.318
2.15;2150000;140;;;;;;;;;;;;;;
2.1525;2152500;408;;;;;;;;;;;;;;
2.155;2155000;264;;;;;;;;;;;;;;
2.1575;2157500;214;;;;;;;;;;;;;;
2.16;2160000;156;;;;;;;;;;;;;;
2.1625;2162500;155;;;;;;;;;;;;;;
2.165;2165000;151;;;;;;;;;;;;;;
2.1675;2167500;152;;;;;;;;;;;;;;
2.17;2170000;138;;;;;;;;;;;;;;
2.1725;2172500;143;;;;;;;;;;;;;;
2.175;2175000;174;;;;;;;;;;;;;;
2.1775;2177500;152;2177303;128.172;-456.991;128.195;491.685;-118.441;491.685;2176854;-25.596;-134.783;-25.596;1620.69;-174.544;1620.689
2.18;2180000;160;;;;;;;;;;;;;;
2.1825;2182500;317;;;;;;;;;;;;;;
2.185;2185000;200;;;;;;;;;;;;;;
2.1875;2187500;171;;;;;;;;;;;;;;
2.19;2190000;167;;;;;;;;;;;;;;
2.1925;2192500;171;;;;;;;;;;;;;;
2.195;2195000;157;;;;;;;;;;;;;;
2.1975;2197500;156;;;;;;;;;;;;;;
2.2;2200000;169;;;;;;;;;;;;;;
2.2025;2202500;361;;;;;;;;;;;;;;
2.205;2205000;284;;;;;;;;;;;;;;
2.2075;2207500;182;2207757;128.236;-457.157;128.258;485.038;-120.394;485.038;2207317;-25.536;-134.863;-25.536;1629.78;-192.067;1629.78
2.21;2210000;154;;;;;;;;;;;;;;
2.2125;2212500;176;;;;;;;;;;;;;;
2.215;2215000;183;;;;;;;;;;;;;;
2.2175;2217500;173;;;;;;;;;;;;;;
2.22;2220000;142;;;;;;;;;;;;;;
2.2225;2222500;156;;;;;;;;;;;;;;
2.225;2225000;153;;;;;;;;;;;;;;
2.2275;2227500;6;;;;;;;;;;;;;;
2.23;2230000;280;;;;;;;;;;;;;;
2.2325;2232500;188;;;;;;;;;;;;;;
2.235;2235000;190;;;;;;;;;;;;;;
2.2375;2237500;158;2236765;128.503;-457.491;128.524;486.162;-119.625;486.162;2236318;-25.455;-134.915;-25.455;1635.354;-197.339;1635.354
2.24;2240000;171;;;;;;;;;;;;;;
2.2425;2242500;153;;;;;;;;;;;;;;
2.245;2245000;135;;;;;;;;;;;;;;
2.2475;2247500;154;;;;;;;;;;;;;;
2.25;2250000;139;;;;;;;;;;;;;;
2.2525;2252500;153;;;;;;;;;;;;;;
2.255;2255000;320;;;;;;;;;;;;;;
2.2575;2257500;219;;;;;;;;;;;;;;
2.26;2260000;188;;;;;;;;;;;;;;
2.2625;2262500;141;;;;;;;;;;;;;;
2.265;2265000;151;;;;;;;;;;;;;;
2.2675;2267500;136;2267221;128.55;-457.888;128.57;491.166;-120.643;491.166;2266781;-25.384;-135.014;-25.384;1626.211;-182.659;1626.211
2.27;2270000;138;;;;;;;;;;;;;;
2.2725;2272500;171;;;;;;;;;;;;;;
2.275;2275000;176;;;;;;;;;;;;;;
2.2775;2277500;154;;;;;;;;;;;;;;
2.28;2280000;144;;;;;;;;;;;;;;
2.2825;2282500;137;;;;;;;;;;;;;;
2.285;2285000;318;;;;;;;;;;;;;;
2.2875;2287500;218;;;;;;;;;;;;;;
2.29;2290000;167;;;;;;;;;;;;;;
2.2925;2292500;156;;;;;;;;;;;;;;
2.295;2295000;157;;;;;;;;;;;;;;
2.2975;2297500;173;2297691;128.601;-458.143;128.62;491.108;-122.924;491.108;2297244;-25.469;-135.193;-25.469;1627.588;-173.089;1627.588
2.3;2300000;169;;;;;;;;;;;;;;
2.3025;2302500;157;;;;;;;;;;;;;;
2.305;2305000;135;;;;;;;;;;;;;;
2.3075;2307500;136;;;;;;;;;;;;;;
2.31;2310000;157;;;;;;;;;;;;;;
2.3125;2312500;170;;;;;;;;;;;;;;
2.315;2315000;366;;;;;;;;;;;;;;
2.3175;2317500;237;;;;;;;;;;;;;;
2.32;2320000;173;;;;;;;;;;;;;;
2.3225;2322500;168;;;;;;;;;;;;;;
2.325;2325000;136;;;;;;;;;;;;;;
2.3275;2327500;155;2328147;128.649;-458.526;128.667;491.49;-124.215;491.49;2327707;-25.598;-135.155;-25.598;1637.209;-186.309;1637.208
2.33;2330000;141;;;;;;;;;;;;;;
2.3325;2332500;153;;;;;;;;;;;;;;
2.335;2335000;156;;;;;;;;;;;;;;
2.3375;2337500;174;;;;;;;;;;;;;;
2.34;2340000;142;;;;;;;;;;;;;;
2.3425;2342500;334;;;;;;;;;;;;;;
2.345;2345000;303;;;;;;;;;;;;;;
2.3475;2347500;204;;;;;;;;;;;;;;
2.35;2350000;175;;;;;;;;;;;;;;
2.3525;2352500;175;;;;;;;;;;;;;;
2.355;2355000;174;;;;;;;;;;;;;;
2.3575;2357500;174;2358619;128.707;-458.865;128.724;482.665;-121.942;482.665;2358170;-25.508;-135.223;-25.508;1634.536;-185.744;1634.535
2.36;2360000;144;;;;;;;;;;;;;;
2.3625;2362500;155;;;;;;;;;;;;;;
2.365;2365000;127;;;;;;;;;;;;;;
2.3675;2367500;127;;;;;;;;;;;;;;
2.37;2370000;157;;;;;;;;;;;;;;
2.3725;2372500;153;;;;;;;;;;;;;;
2.375;2375000;335;;;;;;;;;;;;;;
2.3775;2377500;220;;;;;;;;;;;;;;
2.38;2380000;188;;;;;;;;;;;;;;
2.3825;2382500;158;;;;;;;;;;;;;;
2.385;2385000;136;;;;;;;;;;;;;;
2.3875;2387500;136;2387524;128.78;-459.108;128.797;482.595;-120.22;482.595;2387084;-25.483;-135.386;-25.483;1632.871;-170.769;1632.871
2.39;2390000;139;;;;;;;;;;;;;;
2.3925;2392500;171;;;;;;;;;;;;;;
2.395;2395000;174;;;;;;;;;;;;;;
2.3975;2397500;154;;;;;;;;;;;;;;
2.4;2400000;168;;;;;;;;;;;;;;
2.4025;2402500;157;;;;;;;;;;;;;;
2.405;2405000;377;;;;;;;;;;;;;;
2.4075;2407500;235;;;;;;;;2408688;-25.551;-135.485;-25.551;1628.665;-169.231;1628.665
2.41;2410000;186;2409135;128.832;-459.54;128.847;481.215;-119.459;481.215;;;;;;;
2.4125;2412500;181;;;;;;;;;;;;;;
2.415;2415000;183;;;;;;;;;;;;;;
2.4175;2417500;156;;;;;;;;;;;;;;
2.42;2420000;168;;;;;;;;;;;;;;
2.4225;2422500;136;;;;;;;;;;;;;;
2.425;2425000;153;;;;;;;;;;;;;;
2.4275;2427500;137;;;;;;;;;;;;;;
2.43;2430000;141;;;;;;;;;;;;;;
2.4325;2432500;153;;;;;;;;;;;;;;
2.435;2435000;398;;;;;;;;;;;;;;
2.4375;2437500;252;;;;;;;;;;;;;;
2.44;2440000;184;2439591;128.826;-459.816;128.84;475.967;-116.548;475.967;2439151;-25.731;-135.518;-25.731;1633.42;-177.832;1633.419
2.4425;2442500;152;;;;;;;;;;;;;;
2.445;2445000;137;;;;;;;;;;;;;;
2.4475;2447500;136;;;;;;;;;;;;;;
2.45;2450000;166;;;;;;;;;;;;;;
2.4525;2452500;153;;;;;;;;;;;;;;
2.455;2455000;157;;;;;;;;;;;;;;
2.4575;2457500;156;;;;;;;;;;;;;;
2.46;2460000;143;;;;;;;;;;;;;;
2.4625;2462500;156;;;;;;;;;;;;;;
2.465;2465000;57;;;;;;;;;;;;;;
2.4675;2467500;252;2468601;128.911;-460.005;128.925;477.106;-116.408;477.106;2468153;-25.829;-135.593;-25.829;1643.624;-170.253;1643.623
2.47;2470000;184;;;;;;;;;;;;;;
2.4725;2472500;158;;;;;;;;;;;;;;
2.475;2475000;176;;;;;;;;;;;;;;
2.4775;2477500;155;;;;;;;;;;;;;;
2.48;2480000;143;;;;;;;;;;;;;;
2.4825;2482500;138;;;;;;;;;;;;;;
2.485;2485000;126;;;;;;;;;;;;;;
2.4875;2487500;153;;;;;;;;;;;;;;
2.49;2490000;139;2490109;128.956;-460.234;128.969;476.875;-114.963;476.875;2489669;-25.874;-135.731;-25.874;1641.942;-161.74;1641.942
2.4925;2492500;152;;;;;;;;;;;;;;
2.495;2495000;351;;;;;;;;;;;;;;
2.4975;2497500;232;;;;;;;;;;;;;;
2.5;2500000;189;;;;;;;;;;;;;;
2.5025;2502500;167;;;;;;;;;;;;;;
2.505;2505000;135;;;;;;;;;;;;;;
2.5075;2507500;136;;;;;;;;;;;;;;
2.51;2510000;157;;;;;;;;;;;;;;
2.5125;2512500;152;;;;;;;;;;;;;;
2.515;2515000;314;2514688;129.09;-460.292;129.103;482.782;-117.527;482.782;2514241;-25.898;-135.813;-25.898;1638.158;-161.965;1638.157
2.5175;2517500;301;;;;;;;;;;;;;;
2.52;2520000;219;;;;;;;;;;;;;;
2.5225;2522500;172;;;;;;;;;;;;;;
2.525;2525000;137;;;;;;;;;;;;;;
2.5275;2527500;128;;;;;;;;;;;;;;
2.53;2530000;159;;;;;;;;;;;;;;
2.5325;2532500;144;;;;;;;;;;;;;;
2.535;2535000;174;;;;;;;;;;;;;;
2.5375;2537500;154;;;;;;;;;;;;;;
2.54;2540000;141;2540715;129.047;-460.47;129.059;477.018;-117.338;477.018;2540275;-25.847;-135.958;-25.847;1642.0;-175.305;1642.0
2.5425;2542500;139;;;;;;;;;;;;;;
2.545;2545000;127;;;;;;;;;;;;;;
2.5475;2547500;331;;;;;;;;;;;;;;
2.55;2550000;203;;;;;;;;;;;;;;
2.5525;2552500;189;;;;;;;;;;;;;;
2.555;2555000;186;;;;;;;;;;;;;;
2.5575;2557500;173;;;;;;;;;;;;;;
2.56;2560000;168;;;;;;;;;;;;;;
2.5625;2562500;138;;;;;;;;;;;;;;
2.565;2565000;144;;;;;;;;;;;;;;
2.5675;2567500;154;;;;;;;;;;;;;;
2.57;2570000;168;2571187;129.036;-460.578;129.048;477.667;-114.972;477.667;2570738;-25.86;-135.974;-25.86;1648.712;-185.789;1648.712
2.5725;2572500;170;;;;;;;;;;;;;;
2.575;2575000;60;;;;;;;;;;;;;;
2.5775;2577500;297;;;;;;;;;;;;;;
2.58;2580000;188;;;;;;;;;;;;;;
2.5825;2582500;152;;;;;;;;;;;;;;
2.585;2585000;154;;;;;;;;;;;;;;
2.5875;2587500;136;;;;;;;;;;;;;;
2.59;2590000;139;;;;;;;;;;;;;;
2.5925;2592500;152;;;;;;;;;;;;;;
2.595;2595000;174;;;;;;;;;;;;;;
2.5975;2597500;361;;;;;;;;;;;;;;
2.6;2600000;221;;;;;;;;2601201;-25.86;-135.989;-25.86;1647.652;-182.188;1647.652
2.6025;2602500;158;2601641;129.081;-460.79;129.092;470.408;-111.848;470.408;;;;;;;
2.605;2605000;137;;;;;;;;;;;;;;
2.6075;2607500;155;;;;;;;;;;;;;;
2.61;2610000;139;;;;;;;;;;;;;;
2.6125;2612500;153;;;;;;;;;;;;;;
2.615;2615000;175;;;;;;;;;;;;;;
2.6175;2617500;172;;;;;;;;;;;;;;
2.62;2620000;141;;;;;;;;;;;;;;
2.6225;2622500;315;;;;;;;;;;;;;;
2.625;2625000;190;;;;;;;;;;;;;;
2.6275;2627500;170;;;;;;;;;;;;;;
2.63;2630000;144;2630562;129.123;-460.906;129.134;470.95;-112.818;470.95;2630115;-25.824;-136.125;-25.824;1650.144;-180.078;1650.144
2.6325;2632500;173;;;;;;;;;;;;;;
2.635;2635000;155;;;;;;;;;;;;;;
2.6375;2637500;155;;;;;;;;;;;;;;
2.64;2640000;160;;;;;;;;;;;;;;
2.6425;2642500;155;;;;;;;;;;;;;;
2.645;2645000;128;;;;;;;;;;;;;;
2.6475;2647500;397;;;;;;;;;;;;;;
2.65;2650000;248;;;;;;;;;;;;;;
2.6525;2652500;206;2652160;129.158;-461.156;129.167;473.653;-111.99;473.653;2651720;-25.771;-136.193;-25.771;1651.199;-179.824;1651.199
2.655;2655000;168;;;;;;;;;;;;;;
2.6575;2657500;157;;;;;;;;;;;;;;
2.66;2660000;142;;;;;;;;;;;;;;
2.6625;2662500;137;;;;;;;;;;;;;;
2.665;2665000;152;;;;;;;;;;;;;;
2.6675;2667500;135;;;;;;;;;;;;;;
2.67;2670000;158;;;;;;;;;;;;;;
2.6725;2672500;152;;;;;;;;;;;;;;
2.675;2675000;155;;;;;;;;;;;;;;
2.6775;2677500;395;;;;;;;;;;;;;;
2.68;2680000;267;;;;;;;;;;;;;;
2.6825;2682500;200;2682631;129.282;-461.37;129.291;472.283;-112.515;472.283;2682182;-25.837;-136.149;-25.837;1648.702;-179.583;1648.702
2.685;2685000;167;;;;;;;;;;;;;;
2.6875;2687500;155;;;;;;;;;;;;;;
2.69;2690000;142;;;;;;;;;;;;;;
2.6925;2692500;171;;;;;;;;;;;;;;
2.695;2695000;156;;;;;;;;;;;;;;
2.6975;2697500;171;;;;;;;;;;;;;;
2.7;2700000;166;;;;;;;;;;;;;;
2.7025;2702500;137;;;;;;;;;;;;;;
2.705;2705000;135;;;;;;;;;;;;;;
2.7075;2707500;16;;;;;;;;;;;;;;
2.71;2710000;314;;;;;;;;2711183;-25.905;-135.947;-25.905;1652.892;-182.416;1652.892
2.7125;2712500;230;2711624;129.308;-461.549;129.317;477.981;-112.577;477.981;;;;;;;
2.715;2715000;172;;;;;;;;;;;;;;
2.7175;2717500;184;;;;;;;;;;;;;;
2.72;2720000;168;;;;;;;;;;;;;;
2.7225;2722500;136;;;;;;;;;;;;;;
2.725;2725000;153;;;;;;;;;;;;;;
2.7275;2727500;135;;;;;;;;;;;;;;
2.73;2730000;157;;;;;;;;;;;;;;
2.7325;2732500;170;2733235;129.351;-461.755;129.36;470.27;-111.323;470.27;2732788;-25.867;-136.025;-25.867;1652.497;-184.233;1652.497
2.735;2735000;173;;;;;;;;;;;;;;
2.7375;2737500;409;;;;;;;;;;;;;;
2.74;2740000;264;;;;;;;;;;;;;;
2.7425;2742500;186;;;;;;;;;;;;;;
2.745;2745000;139;;;;;;;;;;;;;;
2.7475;2747500;138;;;;;;;;;;;;;;
2.75;2750000;158;;;;;;;;;;;;;;
2.7525;2752500;144;;;;;;;;;;;;;;
2.755;2755000;173;;;;;;;;;;;;;;
2.7575;2757500;155;;;;;;;;;;;;;;
2.76;2760000;343;;;;;;;;;;;;;;
2.7625;2762500;219;2763517;129.307;-461.859;129.315;473.881;-112.319;473.881;2763077;-25.921;-135.94;-25.921;1661.31;-178.959;1661.31
2.765;2765000;152;;;;;;;;;;;;;;
2.7675;2767500;138;;;;;;;;;;;;;;
2.77;2770000;141;;;;;;;;;;;;;;
2.7725;2772500;153;;;;;;;;;;;;;;
2.775;2775000;156;;;;;;;;;;;;;;
2.7775;2777500;155;;;;;;;;;;;;;;
2.78;2780000;141;;;;;;;;;;;;;;
2.7825;2782500;156;;;;;;;;;;;;;;
2.785;2785000;136;;;;;;;;;;;;;;
2.7875;2787500;137;;;;;;;;;;;;;;
2.79;2790000;352;;;;;;;;;;;;;;
2.7925;2792500;250;2792439;129.393;-462.008;129.401;479.5;-113.703;479.5;2791992;-25.845;-135.944;-25.845;1662.682;-180.948;1662.682
2.795;2795000;185;;;;;;;;;;;;;;
2.7975;2797500;186;;;;;;;;;;;;;;
2.8;2800000;151;;;;;;;;;;;;;;
2.8025;2802500;138;;;;;;;;;;;;;;
2.805;2805000;135;;;;;;;;;;;;;;
2.8075;2807500;152;;;;;;;;;;;;;;
2.81;2810000;158;;;;;;;;;;;;;;
2.8125;2812500;153;;;;;;;;2813596;-25.98;-135.942;-25.98;1663.11;-178.026;1663.11
2.815;2815000;154;2814036;129.444;-461.983;129.451;480.462;-111.956;480.462;;;;;;;
2.8175;2817500;0;;;;;;;;;;;;;;
2.82;2820000;295;;;;;;;;;;;;;;
2.8225;2822500;206;;;;;;;;;;;;;;
2.825;2825000;144;;;;;;;;;;;;;;
2.8275;2827500;138;;;;;;;;;;;;;;
2.83;2830000;167;;;;;;;;;;;;;;
2.8325;2832500;172;;;;;;;;;;;;;;
2.835;2835000;155;;;;;;;;;;;;;;
2.8375;2837500;156;;;;;;;;;;;;;;
2.84;2840000;396;;;;;;;;;;;;;;
2.8425;2842500;234;;;;;;;;;;;;;;
2.845;2845000;158;2844508;129.499;-462.04;129.506;479.189;-112.045;479.189;2844059;-25.956;-136.026;-25.956;1667.017;-182.687;1667.017
2.8475;2847500;168;;;;;;;;;;;;;;
2.85;2850000;142;;;;;;;;;;;;;;
2.8525;2852500;154;;;;;;;;;;;;;;
2.855;2855000;173;;;;;;;;;;;;;;
2.8575;2857500;173;;;;;;;;;;;;;;
2.86;2860000;142;;;;;;;;;;;;;;
2.8625;2862500;155;;;;;;;;;;;;;;
2.865;2865000;154;;;;;;;;;;;;;;
2.8675;2867500;138;;;;;;;;;;;;;;
2.87;2870000;46;;;;;;;;;;;;;;
2.8725;2872500;295;2873500;129.722;-462.246;129.728;470.98;-113.881;470.98;2873060;-25.805;-136.142;-25.805;1668.542;-192.803;1668.542
2.875;2875000;200;;;;;;;;;;;;;;
2.8775;2877500;188;;;;;;;;;;;;;;
2.88;2880000;152;;;;;;;;;;;;;;
2.8825;2882500;155;;;;;;;;;;;;;;
2.885;2885000;136;;;;;;;;;;;;;;
2.8875;2887500;154;;;;;;;;;;;;;;
2.89;2890000;160;;;;;;;;;;;;;;
2.8925;2892500;153;;;;;;;;;;;;;;
2.895;2895000;176;2895111;129.793;-462.326;129.799;477.618;-115.624;477.618;2894664;-25.82;-136.167;-25.82;1669.989;-194.975;1669.989
2.8975;2897500;174;;;;;;;;;;;;;;
2.9;2900000;361;;;;;;;;;;;;;;
2.9025;2902500;230;;;;;;;;;;;;;;
2.905;2905000;157;;;;;;;;;;;;;;
2.9075;2907500;142;;;;;;;;;;;;;;
2.91;2910000;143;;;;;;;;;;;;;;
2.9125;2912500;154;;;;;;;;;;;;;;
2.915;2915000;183;;;;;;;;;;;;;;
2.9175;2917500;156;;;;;;;;;;;;;;
2.92;2920000;313;2919508;129.696;-462.42;129.702;473.425;-114.655;473.425;2919062;-25.743;-136.148;-25.743;1665.24;-189.164;1665.24
2.9225;2922500;298;;;;;;;;;;;;;;
2.925;2925000;185;;;;;;;;;;;;;;
2.9275;2927500;170;;;;;;;;;;;;;;
2.93;2930000;143;;;;;;;;;;;;;;
2.9325;2932500;154;;;;;;;;;;;;;;
2.935;2935000;156;;;;;;;;;;;;;;
2.9375;2937500;182;;;;;;;;;;;;;;
2.94;2940000;170;;;;;;;;;;;;;;
2.9425;2942500;139;;;;;;;;;;;;;;
2.945;2945000;136;2945543;129.598;-462.4;129.604;474.691;-115.048;474.691;2945096;-25.792;-136.13;-25.792;1662.478;-186.268;1662.478
2.9475;2947500;139;;;;;;;;;;;;;;
2.95;2950000;143;;;;;;;;;;;;;;
2.9525;2952500;318;;;;;;;;;;;;;;
2.955;2955000;222;;;;;;;;;;;;;;
2.9575;2957500;201;;;;;;;;;;;;;;
2.96;2960000;156;;;;;;;;;;;;;;
2.9625;2962500;165;;;;;;;;;;;;;;
2.965;2965000;138;;;;;;;;;;;;;;
2.9675;2967500;138;;;;;;;;;;;;;;
2.97;2970000;168;;;;;;;;;;;;;;
2.9725;2972500;173;;;;;;;;;;;;;;
2.975;2975000;157;2975999;129.7;-462.49;129.706;485.956;-116.295;485.956;2975559;-25.844;-136.18;-25.844;1668.604;-185.267;1668.604
2.9775;2977500;158;;;;;;;;;;;;;;
2.98;2980000;7;;;;;;;;;;;;;;
2.9825;2982500;268;;;;;;;;;;;;;;
2.985;2985000;170;;;;;;;;;;;;;;
2.9875;2987500;169;;;;;;;;;;;;;;
2.99;2990000;144;;;;;;;;;;;;;;
2.9925;2992500;154;;;;;;;;;;;;;;
2.995;2995000;182;;;;;;;;;;;;;;
2.9975;2997500;156;;;;;;;;;;;;;;
3.0;3000000;143;;;;;;;;;;;;;;
3.0025;3002500;348;;;;;;;;;;;;;;
3.005;3005000;208;;;;;;;;3006022;-25.73;-136.184;-25.73;1665.236;-188.254;1665.236
3.0075;3007500;157;3006469;129.962;-462.619;129.967;471.721;-114.418;471.721;;;;;;;
3.01;3010000;153;;;;;;;;;;;;;;
3.0125;3012500;173;;;;;;;;;;;;;;
3.015;3015000;155;;;;;;;;;;;;;;
3.0175;3017500;156;;;;;;;;;;;;;;
3.02;3020000;167;;;;;;;;;;;;;;
3.0225;3022500;155;;;;;;;;;;;;;;
3.025;3025000;126;;;;;;;;;;;;;;
3.0275;3027500;304;;;;;;;;;;;;;;
3.03;3030000;223;;;;;;;;;;;;;;
3.0325;3032500;174;;;;;;;;;;;;;;
3.035;3035000;185;3035289;129.972;-462.607;129.977;472.635;-113.947;472.635;3034849;-25.761;-136.11;-25.761;1672.099;-187.154;1672.099
3.0375;3037500;182;;;;;;;;;;;;;;
3.04;3040000;142;;;;;;;;;;;;;;
3.0425;3042500;156;;;;;;;;;;;;;;
3.045;3045000;137;;;;;;;;;;;;;;
3.0475;3047500;128;;;;;;;;;;;;;;
3.05;3050000;167;;;;;;;;;;;;;;
3.0525;3052500;409;;;;;;;;;;;;;;
3.055;3055000;269;;;;;;;;;;;;;;
3.0575;3057500;188;;;;;;;;;;;;;;
3.06;3060000;174;;;;;;;;;;;;;;
3.0625;3062500;157;;;;;;;;;;;;;;
3.065;3065000;134;3065761;130.001;-462.821;130.005;488.378;-117.0;488.378;3065312;-25.937;-136.185;-25.937;1672.932;-181.296;1672.932
3.0675;3067500;153;;;;;;;;;;;;;;
3.07;3070000;141;;;;;;;;;;;;;;
3.0725;3072500;170;;;;;;;;;;;;;;
3.075;3075000;174;;;;;;;;;;;;;;
3.0775;3077500;153;;;;;;;;;;;;;;
3.08;3080000;168;;;;;;;;;;;;;;
3.0825;3082500;399;;;;;;;;;;;;;;
3.085;3085000;264;;;;;;;;;;;;;;
3.0875;3087500;169;3087357;129.997;-462.738;130.002;483.647;-113.775;483.647;3086916;-25.86;-136.122;-25.86;1675.473;-187.106;1675.473
3.09;3090000;170;;;;;;;;;;;;;;
3.0925;3092500;169;;;;;;;;;;;;;;
3.095;3095000;153;;;;;;;;;;;;;;
3.0975;3097500;172;;;;;;;;;;;;;;
3.1;3100000;140;;;;;;;;;;;;;;
3.1025;3102500;152;;;;;;;;;;;;;;
3.105;3105000;153;;;;;;;;;;;;;;
3.1075;3107500;127;;;;;;;;;;;;;;
3.11;3110000;141;;;;;;;;;;;;;;
3.1125;3112500;0;;;;;;;;;;;;;;
3.115;3115000;297;;;;;;;;3115917;-25.799;-136.063;-25.799;1678.762;-182.563;1678.762
3.1175;3117500;202;3116366;130.104;-462.745;130.108;495.339;-114.649;495.339;;;;;;;
3.12;3120000;156;;;;;;;;;;;;;;
3.1225;3122500;157;;;;;;;;;;;;;;
3.125;3125000;128;;;;;;;;;;;;;;
3.1275;3127500;152;;;;;;;;;;;;;;
3.13;3130000;140;;;;;;;;;;;;;;
3.1325;3132500;151;;;;;;;;;;;;;;
3.135;3135000;171;;;;;;;;;;;;;;
3.1375;3137500;152;;;;;;;;;;;;;;
3.14;3140000;158;;;;;;;;;;;;;;
3.1425;3142500;361;;;;;;;;;;;;;;
3.145;3145000;215;;;;;;;;3146207;-25.717;-136.043;-25.717;1675.324;-178.685;1675.324
3.1475;3147500;156;3146647;130.107;-462.946;130.111;495.073;-115.916;495.073;;;;;;;
3.15;3150000;151;;;;;;;;;;;;;;
3.1525;3152500;170;;;;;;;;;;;;;;
3.155;3155000;154;;;;;;;;;;;;;;
3.1575;3157500;151;;;;;;;;;;;;;;
3.16;3160000;166;;;;;;;;;;;;;;
3.1625;3162500;136;;;;;;;;;;;;;;
3.165;3165000;152;;;;;;;;;;;;;;
3.1675;3167500;135;3168258;130.123;-462.997;130.126;498.756;-115.808;498.756;3167811;-25.81;-136.091;-25.81;1675.995;-178.064;1675.995
3.17;3170000;141;;;;;;;;;;;;;;
3.1725;3172500;426;;;;;;;;;;;;;;
3.175;3175000;266;;;;;;;;;;;;;;
3.1775;3177500;216;;;;;;;;;;;;;;
3.18;3180000;155;;;;;;;;;;;;;;
3.1825;3182500;138;;;;;;;;;;;;;;
3.185;3185000;144;;;;;;;;;;;;;;
3.1875;3187500;135;;;;;;;;;;;;;;
3.19;3190000;139;;;;;;;;;;;;;;
3.1925;3192500;150;;;;;;;;;;;;;;
3.195;3195000;345;;;;;;;;;;;;;;
3.1975;3197500;240;3197252;130.009;-463.137;130.013;503.569;-117.892;503.569;3196812;-25.916;-136.125;-25.916;1678.82;-180.973;1678.82
3.2;3200000;168;;;;;;;;;;;;;;
3.2025;3202500;141;;;;;;;;;;;;;;
3.205;3205000;126;;;;;;;;;;;;;;
3.2075;3207500;152;;;;;;;;;;;;;;
3.21;3210000;139;;;;;;;;;;;;;;
3.2125;3212500;169;;;;;;;;;;;;;;
3.215;3215000;172;;;;;;;;;;;;;;
3.2175;3217500;153;;;;;;;;;;;;;;
3.22;3220000;159;3220349;129.999;-462.935;130.003;502.015;-117.248;502.015;3219900;-25.846;-136.089;-25.846;1682.379;-182.862;1682.379
3.2225;3222500;0;;;;;;;;;;;;;;
3.225;3225000;283;;;;;;;;;;;;;;
3.2275;3227500;174;;;;;;;;;;;;;;
3.23;3230000;174;;;;;;;;;;;;;;
3.2325;3232500;173;;;;;;;;;;;;;;
3.235;3235000;156;;;;;;;;;;;;;;
3.2375;3237500;169;;;;;;;;;;;;;;
3.24;3240000;139;;;;;;;;;;;;;;
3.2425;3242500;152;;;;;;;;;;;;;;
3.245;3245000;144;;;;;;;;;;;;;;
3.2475;3247500;126;;;;;;;;;;;;;;
3.25;3250000;138;3249320;130.002;-463.102;130.005;501.852;-119.26;501.852;3248879;-25.933;-136.025;-25.933;1682.26;-181.156;1682.26
3.2525;3252500;347;;;;;;;;;;;;;;
3.255;3255000;298;;;;;;;;;;;;;;
3.2575;3257500;221;;;;;;;;;;;;;;
3.26;3260000;157;;;;;;;;;;;;;;
3.2625;3262500;155;;;;;;;;;;;;;;
3.265;3265000;152;;;;;;;;;;;;;;
3.2675;3267500;153;;;;;;;;;;;;;;
3.27;3270000;158;;;;;;;;;;;;;;
3.2725;3272500;153;;;;;;;;;;;;;;
3.275;3275000;425;;;;;;;;;;;;;;
3.2775;3277500;278;3278329;130.023;-463.261;130.026;501.259;-117.672;501.259;3277880;-25.832;-136.026;-25.832;1672.522;-179.973;1672.522
3.28;3280000;192;;;;;;;;;;;;;;
3.2825;3282500;158;;;;;;;;;;;;;;
3.285;3285000;154;;;;;;;;;;;;;;
3.2875;3287500;135;;;;;;;;;;;;;;
3.29;3290000;140;;;;;;;;;;;;;;
3.2925;3292500;152;;;;;;;;;;;;;;
3.295;3295000;153;;;;;;;;;;;;;;
3.2975;3297500;153;;;;;;;;;;;;;;
3.3;3300000;159;;;;;;;;;;;;;;
3.3025;3302500;136;;;;;;;;;;;;;;
3.305;3305000;316;;;;;;;;;;;;;;
3.3075;3307500;192;;;;;;;;3308343;-25.876;-135.928;-25.876;1671.583;-173.162;1671.583
3.31;3310000;159;3308784;130.061;-463.235;130.064;508.571;-118.351;508.571;;;;;;;
3.3125;3312500;154;;;;;;;;;;;;;;
3.315;3315000;172;;;;;;;;;;;;;;
3.3175;3317500;171;;;;;;;;;;;;;;
3.32;3320000;139;;;;;;;;;;;;;;
3.3225;3322500;126;;;;;;;;;;;;;;
3.325;3325000;123;;;;;;;;;;;;;;
3.3275;3327500;366;;;;;;;;;;;;;;
3.33;3330000;251;;;;;;;;;;;;;;
3.3325;3332500;184;;;;;;;;;;;;;;
3.335;3335000;167;;;;;;;;;;;;;;
3.3375;3337500;171;;;;;;;;3338719;-25.985;-135.915;-25.985;1671.129;-176.317;1671.129
3.34;3340000;138;3339168;130.024;-463.315;130.027;505.018;-122.059;505.018;;;;;;;
3.3425;3342500;126;;;;;;;;;;;;;;
3.345;3345000;124;;;;;;;;;;;;;;
3.3475;3347500;125;;;;;;;;;;;;;;
3.35;3350000;159;;;;;;;;;;;;;;
3.3525;3352500;172;;;;;;;;;;;;;;
3.355;3355000;317;;;;;;;;;;;;;;
3.3575;3357500;302;;;;;;;;;;;;;;
3.36;3360000;199;;;;;;;;;;;;;;
3.3625;3362500;171;;;;;;;;;;;;;;
3.365;3365000;137;;;;;;;;;;;;;;
3.3675;3367500;153;;;;;;;;;;;;;;
3.37;3370000;139;3369623;130.037;-463.225;130.04;503.829;-122.081;503.829;3369183;-26.083;-136.067;-26.083;1664.573;-181.063;1664.573
3.3725;3372500;152;;;;;;;;;;;;;;
3.375;3375000;172;;;;;;;;;;;;;;
3.3775;3377500;153;;;;;;;;;;;;;;
3.38;3380000;158;;;;;;;;;;;;;;
3.3825;3382500;135;;;;;;;;;;;;;;
3.385;3385000;364;;;;;;;;;;;;;;
3.3875;3387500;237;;;;;;;;;;;;;;
3.39;3390000;174;;;;;;;;;;;;;;
3.3925;3392500;174;;;;;;;;;;;;;;
3.395;3395000;172;;;;;;;;;;;;;;
3.3975;3397500;170;;;;;;;;;;;;;;
3.4;3400000;138;3400095;130.105;-463.256;130.108;508.825;-122.102;508.825;3399646;-25.822;-136.029;-25.822;1659.219;-189.073;1659.219
3.4025;3402500;127;;;;;;;;;;;;;;
3.405;3405000;142;;;;;;;;;;;;;;
3.4075;3407500;152;;;;;;;;;;;;;;
3.41;3410000;158;;;;;;;;;;;;;;
3.4125;3412500;143;;;;;;;;;;;;;;
3.415;3415000;30;;;;;;;;;;;;;;
3.4175;3417500;298;;;;;;;;;;;;;;
3.42;3420000;186;;;;;;;;;;;;;;
3.4225;3422500;168;;;;;;;;;;;;;;
3.425;3425000;137;;;;;;;;;;;;;;
3.4275;3427500;153;;;;;;;;3428646;-25.72;-136.035;-25.72;1661.571;-183.994;1661.571
3.43;3430000;156;3429087;130.109;-463.322;130.111;510.072;-123.434;510.072;;;;;;;
3.4325;3432500;151;;;;;;;;;;;;;;
3.435;3435000;171;;;;;;;;;;;;;;
3.4375;3437500;151;;;;;;;;;;;;;;
3.44;3440000;158;;;;;;;;;;;;;;
3.4425;3442500;135;;;;;;;;;;;;;;
3.445;3445000;287;;;;;;;;;;;;;;
3.4475;3447500;301;;;;;;;;;;;;;;
3.45;3450000;216;3450700;130.039;-463.306;130.041;514.318;-121.2;514.318;3450251;-25.758;-136.059;-25.758;1661.617;-177.857;1661.617
3.4525;3452500;186;;;;;;;;;;;;;;
3.455;3455000;181;;;;;;;;;;;;;;
3.4575;3457500;153;;;;;;;;;;;;;;
3.46;3460000;157;;;;;;;;;;;;;;
3.4625;3462500;127;;;;;;;;;;;;;;
3.465;3465000;144;;;;;;;;;;;;;;
3.4675;3467500;126;;;;;;;;;;;;;;
3.47;3470000;139;;;;;;;;;;;;;;
3.4725;3472500;143;;;;;;;;;;;;;;
3.475;3475000;152;;;;;;;;;;;;;;
3.4775;3477500;327;;;;;;;;;;;;;;
3.48;3480000;222;3481154;130.003;-463.393;130.005;511.79;-119.515;511.79;3480714;-25.824;-136.167;-25.824;1662.974;-176.839;1662.974
3.4825;3482500;153;;;;;;;;;;;;;;
3.485;3485000;127;;;;;;;;;;;;;;
3.4875;3487500;128;;;;;;;;;;;;;;
3.49;3490000;157;;;;;;;;;;;;;;
3.4925;3492500;151;;;;;;;;;;;;;;
3.495;3495000;154;;;;;;;;;;;;;;
3.4975;3497500;152;;;;;;;;;;;;;;
3.5;3500000;141;;;;;;;;;;;;;;
3.5025;3502500;154;;;;;;;;;;;;;;
3.505;3505000;152;;;;;;;;;;;;;;
3.5075;3507500;345;;;;;;;;;;;;;;
3.51;3510000;220;3510077;130.121;-463.379;130.123;506.325;-120.977;506.325;3509628;-25.808;-136.1;-25.808;1658.138;-177.622;1658.138
3.5125;3512500;174;;;;;;;;;;;;;;
3.515;3515000;184;;;;;;;;;;;;;;
3.5175;3517500;153;;;;;;;;;;;;;;
3.52;3520000;140;;;;;;;;;;;;;;
3.5225;3522500;127;;;;;;;;;;;;;;
3.525;3525000;125;;;;;;;;;;;;;;
3.5275;3527500;155;;;;;;;;;;;;;;
3.53;3530000;159;;;;;;;;3531232;-25.823;-136.151;-25.823;1658.356;-174.866;1658.356
3.5325;3532500;153;3531673;130.203;-463.592;130.205;506.384;-124.553;506.384;;;;;;;
3.535;3535000;364;;;;;;;;;;;;;;
3.5375;3537500;297;;;;;;;;;;;;;;
3.54;3540000;198;;;;;;;;;;;;;;
3.5425;3542500;153;;;;;;;;;;;;;;
3.545;3545000;136;;;;;;;;;;;;;;
3.5475;3547500;138;;;;;;;;;;;;;;
3.55;3550000;159;;;;;;;;;;;;;;
3.5525;3552500;153;;;;;;;;;;;;;;
3.555;3555000;156;;;;;;;;;;;;;;
3.5575;3557500;398;;;;;;;;;;;;;;
3.56;3560000;254;;;;;;;;;;;;;;
3.5625;3562500;187;3562144;130.153;-463.531;130.155;505.565;-122.263;505.565;3561695;-25.788;-136.066;-25.788;1654.625;-180.123;1654.625
3.565;3565000;136;;;;;;;;;;;;;;
3.5675;3567500;154;;;;;;;;;;;;;;
3.57;3570000;141;;;;;;;;;;;;;;
3.5725;3572500;153;;;;;;;;;;;;;;
3.575;3575000;170;;;;;;;;;;;;;;
3.5775;3577500;154;;;;;;;;;;;;;;
3.58;3580000;142;;;;;;;;;;;;;;
3.5825;3582500;153;;;;;;;;;;;;;;
3.585;3585000;128;;;;;;;;;;;;;;
3.5875;3587500;22;;;;;;;;;;;;;;
3.59;3590000;268;3591136;130.142;-463.437;130.143;513.099;-120.525;513.099;3590696;-25.786;-136.076;-25.786;1662.457;-181.179;1662.457
3.5925;3592500;215;;;;;;;;;;;;;;
3.595;3595000;186;;;;;;;;;;;;;;
3.5975;3597500;155;;;;;;;;;;;;;;
3.6;3600000;156;;;;;;;;;;;;;;
3.6025;3602500;136;;;;;;;;;;;;;;
3.605;3605000;154;;;;;;;;;;;;;;
3.6075;3607500;154;;;;;;;;;;;;;;
3.61;3610000;141;;;;;;;;;;;;;;
3.6125;3612500;172;3612749;130.156;-463.488;130.157;500.132;-118.873;500.132;3612301;-25.753;-136.141;-25.753;1652.396;-183.057;1652.396
3.615;3615000;173;;;;;;;;;;;;;;
3.6175;3617500;377;;;;;;;;;;;;;;
3.62;3620000;237;;;;;;;;;;;;;;
3.6225;3622500;158;;;;;;;;;;;;;;
3.625;3625000;155;;;;;;;;;;;;;;
3.6275;3627500;136;;;;;;;;;;;;;;
3.63;3630000;158;;;;;;;;;;;;;;
3.6325;3632500;170;;;;;;;;;;;;;;
3.635;3635000;173;;;;;;;;;;;;;;
3.6375;3637500;271;;;;;;;;;;;;;;
3.64;3640000;285;;;;;;;;;;;;;;
3.6425;3642500;186;3643204;130.297;-463.439;130.298;497.0;-120.805;497.0;3642764;-25.619;-136.263;-25.619;1652.901;-178.717;1652.901
3.645;3645000;141;;;;;;;;;;;;;;
3.6475;3647500;136;;;;;;;;;;;;;;
3.65;3650000;141;;;;;;;;;;;;;;
3.6525;3652500;152;;;;;;;;;;;;;;
3.655;3655000;172;;;;;;;;;;;;;;
3.6575;3657500;150;;;;;;;;;;;;;;
3.66;3660000;157;;;;;;;;;;;;;;
3.6625;3662500;126;;;;;;;;;;;;;;
3.665;3665000;124;;;;;;;;;;;;;;
3.6675;3667500;151;;;;;;;;;;;;;;
3.67;3670000;344;;;;;;;;;;;;;;
3.6725;3672500;236;3672213;130.272;-463.312;130.274;499.712;-123.077;499.712;3671765;-25.673;-136.246;-25.673;1652.944;-172.406;1652.944
3.675;3675000;172;;;;;;;;;;;;;;
3.6775;3677500;158;;;;;;;;;;;;;;
3.68;3680000;156;;;;;;;;;;;;;;
3.6825;3682500;134;;;;;;;;;;;;;;
3.685;3685000;126;;;;;;;;;;;;;;
3.6875;3687500;128;;;;;;;;;;;;;;
3.69;3690000;139;;;;;;;;;;;;;;
3.6925;3692500;172;;;;;;;;3693369;-25.75;-136.247;-25.75;1652.547;-169.036;1652.547
3.695;3695000;155;3693809;130.292;-463.382;130.293;490.914;-125.673;490.914;;;;;;;
3.6975;3697500;206;;;;;;;;;;;;;;
3.7;3700000;264;;;;;;;;;;;;;;
3.7025;3702500;170;;;;;;;;;;;;;;
3.705;3705000;138;;;;;;;;;;;;;;
3.7075;3707500;156;;;;;;;;;;;;;;
3.71;3710000;141;;;;;;;;;;;;;;
3.7125;3712500;151;;;;;;;;;;;;;;
3.715;3715000;155;;;;;;;;;;;;;;
3.7175;3717500;172;3718388;130.304;-463.399;130.306;495.681;-126.389;495.681;3717941;-25.792;-136.322;-25.792;1656.107;-172.834;1656.107
3.72;3720000;380;;;;;;;;;;;;;;
3.7225;3722500;217;;;;;;;;;;;;;;
3.725;3725000;174;;;;;;;;;;;;;;
3.7275;3727500;158;;;;;;;;;;;;;;
3.73;3730000;151;;;;;;;;;;;;;;
3.7325;3732500;172;;;;;;;;;;;;;;
3.735;3735000;155;;;;;;;;;;;;;;
3.7375;3737500;155;;;;;;;;;;;;;;
3.74;3740000;160;;;;;;;;;;;;;;
3.7425;3742500;137;;;;;;;;;;;;;;
3.745;3745000;125;3744414;130.377;-463.512;130.378;491.46;-124.882;491.46;3743974;-25.735;-136.368;-25.735;1660.802;-171.63;1660.802
3.7475;3747500;153;;;;;;;;;;;;;;
3.75;3750000;423;;;;;;;;;;;;;;
3.7525;3752500;279;;;;;;;;;;;;;;
3.755;3755000;189;;;;;;;;;;;;;;
3.7575;3757500;185;;;;;;;;;;;;;;
3.76;3760000;168;;;;;;;;;;;;;;
3.7625;3762500;127;;;;;;;;;;;;;;
3.765;3765000;153;;;;;;;;;;;;;;
3.7675;3767500;126;;;;;;;;;;;;;;
3.77;3770000;158;;;;;;;;;;;;;;
3.7725;3772500;154;;;;;;;;;;;;;;
3.775;3775000;157;3774711;130.385;-463.438;130.386;486.574;-124.763;486.574;3774264;-25.662;-136.308;-25.662;1656.512;-172.236;1656.512
3.7775;3777500;171;;;;;;;;;;;;;;
3.78;3780000;335;;;;;;;;;;;;;;
3.7825;3782500;218;;;;;;;;;;;;;;
3.785;3785000;152;;;;;;;;;;;;;;
3.7875;3787500;158;;;;;;;;;;;;;;
3.79;3790000;158;;;;;;;;;;;;;;
3.7925;3792500;153;;;;;;;;;;;;;;
3.795;3795000;172;;;;;;;;;;;;;;
3.7975;3797500;151;;;;;;;;;;;;;;
3.8;3800000;367;;;;;;;;;;;;;;
3.8025;3802500;279;;;;;;;;;;;;;;
3.805;3805000;172;3805167;130.32;-463.507;130.321;493.308;-126.4;493.308;3804727;-25.617;-136.301;-25.617;1664.249;-172.374;1664.249
3.8075;3807500;143;;;;;;;;;;;;;;
3.81;3810000;142;;;;;;;;;;;;;;
3.8125;3812500;171;;;;;;;;;;;;;;
3.815;3815000;154;;;;;;;;;;;;;;
3.8175;3817500;152;;;;;;;;;;;;;;
3.82;3820000;166;;;;;;;;;;;;;;
3.8225;3822500;135;;;;;;;;;;;;;;
3.825;3825000;168;;;;;;;;;;;;;;
3.8275;3827500;247;;;;;;;;;;;;;;
3.83;3830000;175;;;;;;;;;;;;;;
3.8325;3832500;186;;;;;;;;3833728;-25.508;-136.305;-25.508;1665.036;-182.568;1665.036
3.835;3835000;183;3834175;130.196;-463.469;130.198;483.08;-126.643;483.08;;;;;;;
3.8375;3837500;155;;;;;;;;;;;;;;
3.84;3840000;143;;;;;;;;;;;;;;
3.8425;3842500;137;;;;;;;;;;;;;;
3.845;3845000;153;;;;;;;;;;;;;;
3.8475;3847500;136;;;;;;;;;;;;;;
3.85;3850000;0;;;;;;;;;;;;;;
3.8525;3852500;315;;;;;;;;;;;;;;
3.855;3855000;217;3855772;130.183;-463.536;130.184;486.926;-123.811;486.926;3855332;-25.403;-136.328;-25.403;1667.534;-180.002;1667.534
3.8575;3857500;200;;;;;;;;;;;;;;
3.86;3860000;172;;;;;;;;;;;;;;
3.8625;3862500;156;;;;;;;;;;;;;;
3.865;3865000;135;;;;;;;;;;;;;;
3.8675;3867500;137;;;;;;;;;;;;;;
3.87;3870000;160;;;;;;;;;;;;;;
3.8725;3872500;151;;;;;;;;;;;;;;
3.875;3875000;172;;;;;;;;;;;;;;
3.8775;3877500;153;;;;;;;;;;;;;;
3.88;3880000;140;;;;;;;;;;;;;;
3.8825;3882500;316;;;;;;;;;;;;;;
3.885;3885000;199;3886157;130.225;-463.546;130.226;481.392;-121.995;481.392;3885708;-25.28;-136.447;-25.28;1663.783;-181.064;1663.783
3.8875;3887500;153;;;;;;;;;;;;;;
3.89;3890000;142;;;;;;;;;;;;;;
3.8925;3892500;153;;;;;;;;;;;;;;
3.895;3895000;172;;;;;;;;;;;;;;
3.8975;3897500;172;;;;;;;;;;;;;;
3.9;3900000;140;;;;;;;;;;;;;;
3.9025;3902500;137;;;;;;;;;;;;;;
3.905;3905000;153;;;;;;;;;;;;;;
3.9075;3907500;137;;;;;;;;;;;;;;
3.91;3910000;141;;;;;;;;;;;;;;
3.9125;3912500;365;;;;;;;;;;;;;;
3.915;3915000;255;3915149;130.247;-463.451;130.248;483.573;-120.708;483.573;3914709;-25.315;-136.366;-25.315;1665.031;-175.074;1665.031
3.9175;3917500;204;;;;;;;;;;;;;;
3.92;3920000;153;;;;;;;;;;;;;;
3.9225;3922500;157;;;;;;;;;;;;;;
3.925;3925000;155;;;;;;;;;;;;;;
3.9275;3927500;154;;;;;;;;;;;;;;
3.93;3930000;159;;;;;;;;;;;;;;
3.9325;3932500;154;;;;;;;;;;;;;;
3.935;3935000;173;;;;;;;;;;;;;;
3.9375;3937500;171;;;;;;;;;;;;;;
3.94;3940000;26;;;;;;;;;;;;;;
3.9425;3942500;300;;;;;;;;;;;;;;
3.945;3945000;200;3945619;130.219;-463.446;130.22;484.331;-123.422;484.331;3945172;-25.465;-136.282;-25.465;1667.529;-174.633;1667.529
3.9475;3947500;168;;;;;;;;;;;;;;
3.95;3950000;168;;;;;;;;;;;;;;
3.9525;3952500;153;;;;;;;;;;;;;;
3.955;3955000;171;;;;;;;;;;;;;;
3.9575;3957500;154;;;;;;;;;;;;;;
3.96;3960000;157;;;;;;;;;;;;;;
3.9625;3962500;397;;;;;;;;;;;;;;
3.965;3965000;252;;;;;;;;;;;;;;
3.9675;3967500;186;3967217;130.217;-463.307;130.218;481.552;-121.626;481.552;3966776;-25.515;-136.33;-25.515;1665.965;-177.276;1665.965
3.97;3970000;152;;;;;;;;;;;;;;
3.9725;3972500;153;;;;;;;;;;;;;;
3.975;3975000;172;;;;;;;;;;;;;;
3.9775;3977500;171;;;;;;;;;;;;;;
3.98;3980000;159;;;;;;;;;;;;;;
3.9825;3982500;135;;;;;;;;;;;;;;
3.985;3985000;126;;;;;;;;;;;;;;
3.9875;3987500;153;;;;;;;;;;;;;;
3.99;3990000;141;;;;;;;;;;;;;;
3.9925;3992500;383;;;;;;;;;;;;;;
3.995;3995000;280;3996226;130.276;-463.291;130.277;483.725;-123.857;483.725;3995777;-25.563;-136.346;-25.563;1663.605;-173.662;1663.605
3.9975;3997500;217;;;;;;;;;;;;;;
4.0;4000000;156;;;;;;;;;;;;;;
4.0025;4002500;155;;;;;;;;;;;;;;
4.005;4005000;128;;;;;;;;;;;;;;
4.0075;4007500;137;;;;;;;;;;;;;;
4.01;4010000;158;;;;;;;;;;;;;;
4.0125;4012500;171;;;;;;;;;;;;;;
4.015;4015000;155;;;;;;;;;;;;;;
4.0175;4017500;153;;;;;;;;;;;;;;
4.02;4020000;143;4019306;130.368;-463.246;130.369;474.851;-121.602;474.851;4018865;-25.597;-136.434;-25.597;1655.675;-172.416;1655.675
4.0225;4022500;365;;;;;;;;;;;;;;
4.025;4025000;206;;;;;;;;;;;;;;
4.0275;4027500;174;;;;;;;;;;;;;;
4.03;4030000;153;;;;;;;;;;;;;;
4.0325;4032500;155;;;;;;;;;;;;;;
4.035;4035000;174;;;;;;;;;;;;;;
4.0375;4037500;173;;;;;;;;;;;;;;
4.04;4040000;140;;;;;;;;;;;;;;
4.0425;4042500;136;;;;;;;;;;;;;;
4.045;4045000;126;;;;;;;;;;;;;;
4.0475;4047500;137;4048118;130.401;-463.3;130.402;479.108;-122.959;479.108;4047671;-25.628;-136.511;-25.628;1658.203;-176.483;1658.203
4.05;4050000;140;;;;;;;;;;;;;;
4.0525;4052500;396;;;;;;;;;;;;;;
4.055;4055000;253;;;;;;;;;;;;;;
4.0575;4057500;188;;;;;;;;;;;;;;
4.06;4060000;172;;;;;;;;;;;;;;
4.0625;4062500;136;;;;;;;;;;;;;;
4.065;4065000;126;;;;;;;;;;;;;;
4.0675;4067500;134;;;;;;;;;;;;;;
4.07;4070000;140;;;;;;;;;;;;;;
4.0725;4072500;153;;;;;;;;;;;;;;
4.075;4075000;331;;;;;;;;;;;;;;
4.0775;4077500;218;4077112;130.28;-463.309;130.281;488.403;-122.937;488.403;4076672;-25.573;-136.53;-25.573;1656.231;-176.846;1656.231
4.08;4080000;168;;;;;;;;;;;;;;
4.0825;4082500;157;;;;;;;;;;;;;;
4.085;4085000;134;;;;;;;;;;;;;;
4.0875;4087500;135;;;;;;;;;;;;;;
4.09;4090000;142;;;;;;;;;;;;;;
4.0925;4092500;154;;;;;;;;;;;;;;
4.095;4095000;174;;;;;;;;;;;;;;
4.0975;4097500;154;;;;;;;;;;;;;;
4.1;4100000;167;;;;;;;;;;;;;;
4.1025;4102500;204;;;;;;;;;;;;;;
4.105;4105000;281;;;;;;;;;;;;;;
4.1075;4107500;198;4107582;130.232;-463.305;130.233;482.795;-122.915;482.795;4107135;-25.63;-136.444;-25.63;1651.294;-171.942;1651.294
4.11;4110000;174;;;;;;;;;;;;;;
4.1125;4112500;173;;;;;;;;;;;;;;
4.115;4115000;173;;;;;;;;;;;;;;
4.1175;4117500;154;;;;;;;;;;;;;;
4.12;4120000;160;;;;;;;;;;;;;;
4.1225;4122500;137;;;;;;;;;;;;;;
4.125;4125000;8;;;;;;;;;;;;;;
4.1275;4127500;297;;;;;;;;;;;;;;
4.13;4130000;220;;;;;;;;;;;;;;
4.1325;4132500;189;;;;;;;;;;;;;;
4.135;4135000;159;;;;;;;;;;;;;;
4.1375;4137500;172;4138038;130.241;-463.271;130.242;484.468;-124.206;484.468;4137598;-25.672;-136.392;-25.672;1660.167;-169.032;1660.167
4.14;4140000;158;;;;;;;;;;;;;;
4.1425;4142500;137;;;;;;;;;;;;;;
4.145;4145000;154;;;;;;;;;;;;;;
4.1475;4147500;137;;;;;;;;;;;;;;
4.15;4150000;141;;;;;;;;;;;;;;
4.1525;4152500;155;;;;;;;;;;;;;;
4.155;4155000;415;;;;;;;;;;;;;;
4.1575;4157500;252;;;;;;;;;;;;;;
4.16;4160000;174;;;;;;;;;;;;;;
4.1625;4162500;159;;;;;;;;;;;;;;
4.165;4165000;134;;;;;;;;;;;;;;
4.1675;4167500;136;4168510;130.226;-463.318;130.226;481.245;-125.871;481.245;4168061;-25.658;-136.448;-25.658;1660.284;-175.893;1660.284
4.17;4170000;140;;;;;;;;;;;;;;
4.1725;4172500;152;;;;;;;;;;;;;;
4.175;4175000;171;;;;;;;;;;;;;;
4.1775;4177500;152;;;;;;;;;;;;;;
4.18;4180000;139;;;;;;;;;;;;;;
4.1825;4182500;136;;;;;;;;;;;;;;
4.185;4185000;311;;;;;;;;;;;;;;
4.1875;4187500;218;;;;;;;;;;;;;;
4.19;4190000;168;;;;;;;;;;;;;;
4.1925;4192500;157;;;;;;;;;;;;;;
4.195;4195000;157;;;;;;;;;;;;;;
4.1975;4197500;152;;;;;;;;4198524;-25.68;-136.445;-25.68;1655.145;-178.036;1655.145
4.2;4200000;157;4198964;130.205;-463.424;130.205;472.932;-121.765;472.932;;;;;;;
4.2025;4202500;153;;;;;;;;;;;;;;
4.205;4205000;127;;;;;;;;;;;;;;
4.2075;4207500;138;;;;;;;;;;;;;;
4.21;4210000;141;;;;;;;;;;;;;;
4.2125;4212500;153;;;;;;;;;;;;;;
4.215;4215000;360;;;;;;;;;;;;;;
4.2175;4217500;234;;;;;;;;;;;;;;
4.22;4220000;171;;;;;;;;;;;;;;
4.2225;4222500;141;;;;;;;;;;;;;;
4.225;4225000;153;;;;;;;;;;;;;;
4.2275;4227500;135;4227972;130.185;-463.341;130.186;489.098;-121.802;489.098;4227525;-25.72;-136.333;-25.72;1660.325;-167.822;1660.325
4.23;4230000;140;;;;;;;;;;;;;;
4.2325;4232500;152;;;;;;;;;;;;;;
4.235;4235000;152;;;;;;;;;;;;;;
4.2375;4237500;169;;;;;;;;;;;;;;
4.24;4240000;156;;;;;;;;;;;;;;
4.2425;4242500;127;;;;;;;;;;;;;;
4.245;4245000;399;;;;;;;;;;;;;;
4.2475;4247500;250;;;;;;;;;;;;;;
4.25;4250000;174;4249570;130.185;-463.269;130.185;481.268;-119.212;481.268;4249129;-25.709;-136.336;-25.709;1656.059;-172.118;1656.059
4.2525;4252500;184;;;;;;;;;;;;;;
4.255;4255000;183;;;;;;;;;;;;;;
4.2575;4257500;154;;;;;;;;;;;;;;
4.26;4260000;159;;;;;;;;;;;;;;
4.2625;4262500;136;;;;;;;;;;;;;;
4.265;4265000;153;;;;;;;;;;;;;;
4.2675;4267500;153;;;;;;;;;;;;;;
4.27;4270000;151;;;;;;;;;;;;;;
4.2725;4272500;173;;;;;;;;;;;;;;
4.275;4275000;351;;;;;;;;;;;;;;
4.2775;4277500;285;;;;;;;;;;;;;;
4.28;4280000;184;4280039;130.135;-463.358;130.136;480.392;-118.939;480.392;4279592;-25.777;-136.345;-25.777;1664.693;-177.075;1664.693
4.2825;4282500;142;;;;;;;;;;;;;;
4.285;4285000;156;;;;;;;;;;;;;;
4.2875;4287500;138;;;;;;;;;;;;;;
4.29;4290000;157;;;;;;;;;;;;;;
4.2925;4292500;173;;;;;;;;;;;;;;
4.295;4295000;156;;;;;;;;;;;;;;
4.2975;4297500;172;;;;;;;;;;;;;;
4.3;4300000;142;;;;;;;;;;;;;;
4.3025;4302500;138;;;;;;;;;;;;;;
4.305;4305000;283;;;;;;;;;;;;;;
4.3075;4307500;279;;;;;;;;4308593;-25.843;-136.287;-25.843;1663.271;-169.971;1663.271
4.31;4310000;217;4309034;130.174;-463.431;130.174;479.123;-119.992;479.123;;;;;;;
4.3125;4312500;171;;;;;;;;;;;;;;
4.315;4315000;176;;;;;;;;;;;;;;
4.3175;4317500;154;;;;;;;;;;;;;;
4.32;4320000;142;;;;;;;;;;;;;;
4.3225;4322500;153;;;;;;;;;;;;;;
4.325;4325000;127;;;;;;;;;;;;;;
4.3275;4327500;154;;;;;;;;;;;;;;
4.33;4330000;169;4330645;130.076;-463.507;130.077;477.917;-120.555;477.917;4330198;-25.801;-136.402;-25.801;1662.357;-166.722;1662.357
4.3325;4332500;174;;;;;;;;;;;;;;
4.335;4335000;380;;;;;;;;;;;;;;
4.3375;4337500;238;;;;;;;;;;;;;;
4.34;4340000;174;;;;;;;;;;;;;;
4.3425;4342500;142;;;;;;;;;;;;;;
4.345;4345000;137;;;;;;;;;;;;;;
4.3475;4347500;139;;;;;;;;;;;;;;
4.35;4350000;151;;;;;;;;;;;;;;
4.3525;4352500;172;;;;;;;;;;;;;;
4.355;4355000;171;;;;;;;;;;;;;;
4.3575;4357500;344;;;;;;;;;;;;;;
4.36;4360000;206;4361101;130.014;-463.585;130.014;481.583;-120.652;481.583;4360661;-25.774;-136.481;-25.774;1665.865;-169.324;1665.865
4.3625;4362500;155;;;;;;;;;;;;;;
4.365;4365000;156;;;;;;;;;;;;;;
4.3675;4367500;137;;;;;;;;;;;;;;
4.37;4370000;143;;;;;;;;;;;;;;
4.3725;4372500;155;;;;;;;;;;;;;;
4.375;4375000;156;;;;;;;;;;;;;;
4.3775;4377500;154;;;;;;;;;;;;;;
4.38;4380000;141;;;;;;;;;;;;;;
4.3825;4382500;135;;;;;;;;;;;;;;
4.385;4385000;127;;;;;;;;;;;;;;
4.3875;4387500;346;;;;;;;;;;;;;;
4.39;4390000;238;4390022;130.113;-463.561;130.114;478.504;-120.307;478.504;4389575;-25.827;-136.397;-25.827;1670.071;-170.045;1670.071
4.3925;4392500;202;;;;;;;;;;;;;;
4.395;4395000;167;;;;;;;;;;;;;;
4.3975;4397500;155;;;;;;;;;;;;;;
4.4;4400000;141;;;;;;;;;;;;;;
4.4025;4402500;137;;;;;;;;;;;;;;
4.405;4405000;127;;;;;;;;;;;;;;
4.4075;4407500;156;;;;;;;;;;;;;;
4.41;4410000;144;;;;;;;;4411179;-25.835;-136.403;-25.835;1671.443;-170.293;1671.443
4.4125;4412500;155;4411619;130.116;-463.587;130.117;476.892;-118.229;476.892;;;;;;;
4.415;4415000;315;;;;;;;;;;;;;;
4.4175;4417500;297;;;;;;;;;;;;;;
4.42;4420000;216;;;;;;;;;;;;;;
4.4225;4422500;172;;;;;;;;;;;;;;
4.425;4425000;157;;;;;;;;;;;;;;
4.4275;4427500;139;;;;;;;;;;;;;;
4.43;4430000;169;;;;;;;;;;;;;;
4.4325;4432500;154;;;;;;;;;;;;;;
4.435;4435000;174;;;;;;;;;;;;;;
4.4375;4437500;415;;;;;;;;;;;;;;
4.44;4440000;253;;;;;;;;;;;;;;
4.4425;4442500;185;4441916;130.125;-463.643;130.126;476.672;-120.63;476.672;4441469;-26.135;-136.293;-26.135;1673.621;-167.903;1673.621
4.445;4445000;159;;;;;;;;;;;;;;
4.4475;4447500;135;;;;;;;;;;;;;;
4.45;4450000;168;;;;;;;;;;;;;;
4.4525;4452500;154;;;;;;;;;;;;;;
4.455;4455000;173;;;;;;;;;;;;;;
4.4575;4457500;173;;;;;;;;;;;;;;
4.46;4460000;159;;;;;;;;;;;;;;
4.4625;4462500;155;;;;;;;;;;;;;;
4.465;4465000;128;;;;;;;;;;;;;;
4.4675;4467500;42;;;;;;;;;;;;;;
4.47;4470000;286;4470736;130.067;-463.549;130.067;476.026;-121.598;476.026;4470296;-26.085;-136.335;-26.085;1672.19;-166.508;1672.19
4.4725;4472500;200;;;;;;;;;;;;;;
4.475;4475000;190;;;;;;;;;;;;;;
4.4775;4477500;157;;;;;;;;;;;;;;
4.48;4480000;167;;;;;;;;;;;;;;
4.4825;4482500;155;;;;;;;;;;;;;;
4.485;4485000;153;;;;;;;;;;;;;;
4.4875;4487500;155;;;;;;;;;;;;;;
4.49;4490000;143;;;;;;;;;;;;;;
4.4925;4492500;173;4492347;129.993;-463.582;129.993;478.475;-122.519;478.475;4491900;-25.946;-136.283;-25.946;1673.455;-166.495;1673.455
4.495;4495000;176;;;;;;;;;;;;;;
4.4975;4497500;376;;;;;;;;;;;;;;
4.5;4500000;237;;;;;;;;;;;;;;
4.5025;4502500;157;;;;;;;;;;;;;;
4.505;4505000;140;;;;;;;;;;;;;;
4.5075;4507500;141;;;;;;;;;;;;;;
4.51;4510000;169;;;;;;;;;;;;;;
4.5125;4512500;155;;;;;;;;;;;;;;
4.515;4515000;156;;;;;;;;;;;;;;
4.5175;4517500;0;4516912;129.947;-463.534;129.947;473.801;-120.33;473.801;4516472;-25.936;-136.234;-25.936;1671.595;-172.17;1671.595
4.52;4520000;286;;;;;;;;;;;;;;
4.5225;4522500;204;;;;;;;;;;;;;;
4.525;4525000;144;;;;;;;;;;;;;;
4.5275;4527500;141;;;;;;;;;;;;;;
4.53;4530000;169;;;;;;;;;;;;;;
4.5325;4532500;156;;;;;;;;;;;;;;
4.535;4535000;158;;;;;;;;;;;;;;
4.5375;4537500;155;;;;;;;;;;;;;;
4.54;4540000;142;;;;;;;;;;;;;;
4.5425;4542500;139;4542778;129.934;-463.422;129.934;471.986;-117.376;471.986;4542330;-25.957;-136.217;-25.957;1672.015;-168.812;1672.015
4.545;4545000;137;;;;;;;;;;;;;;
4.5475;4547500;0;;;;;;;;;;;;;;
4.55;4550000;314;;;;;;;;;;;;;;
4.5525;4552500;218;;;;;;;;;;;;;;
4.555;4555000;201;;;;;;;;;;;;;;
4.5575;4557500;157;;;;;;;;;;;;;;
4.56;4560000;150;;;;;;;;;;;;;;
4.5625;4562500;137;;;;;;;;;;;;;;
4.565;4565000;137;;;;;;;;;;;;;;
4.5675;4567500;156;;;;;;;;;;;;;;
4.57;4570000;152;;;;;;;;;;;;;;
4.5725;4572500;174;4573235;129.952;-463.4;129.952;477.699;-120.695;477.699;4572795;-25.934;-136.22;-25.934;1666.727;-170.434;1666.727
4.575;4575000;158;;;;;;;;;;;;;;
4.5775;4577500;409;;;;;;;;;;;;;;
4.58;4580000;249;;;;;;;;;;;;;;
4.5825;4582500;173;;;;;;;;;;;;;;
4.585;4585000;151;;;;;;;;;;;;;;
4.5875;4587500;140;;;;;;;;;;;;;;
4.59;4590000;143;;;;;;;;;;;;;;
4.5925;4592500;156;;;;;;;;;;;;;;
4.595;4595000;176;;;;;;;;;;;;;;
4.5975;4597500;172;;;;;;;;;;;;;;
4.6;4600000;332;;;;;;;;;;;;;;
4.6025;4602500;223;4603707;129.963;-463.496;129.963;472.627;-117.285;472.627;4603258;-26.083;-136.26;-26.083;1664.766;-171.975;1664.766
4.605;4605000;155;;;;;;;;;;;;;;
4.6075;4607500;141;;;;;;;;;;;;;;
4.61;4610000;167;;;;;;;;;;;;;;
4.6125;4612500;175;;;;;;;;;;;;;;
4.615;4615000;173;;;;;;;;;;;;;;
4.6175;4617500;153;;;;;;;;;;;;;;
4.62;4620000;159;;;;;;;;;;;;;;
4.6225;4622500;0;;;;;;;;;;;;;;
4.625;4625000;298;;;;;;;;;;;;;;
4.6275;4627500;217;;;;;;;;;;;;;;
4.63;4630000;168;;;;;;;;;;;;;;
4.6325;4632500;184;4632612;130.065;-463.513;130.066;473.495;-117.546;473.495;4632172;-26.054;-136.26;-26.054;1664.215;-168.188;1664.215
4.635;4635000;156;;;;;;;;;;;;;;
4.6375;4637500;155;;;;;;;;;;;;;;
4.64;4640000;168;;;;;;;;;;;;;;
4.6425;4642500;137;;;;;;;;;;;;;;
4.645;4645000;127;;;;;;;;;;;;;;
4.6475;4647500;139;;;;;;;;;;;;;;
4.65;4650000;366;;;;;;;;;;;;;;
4.6525;4652500;265;;;;;;;;;;;;;;
4.655;4655000;186;4654223;130.065;-463.456;130.065;471.695;-117.356;471.695;4653776;-26.044;-136.298;-26.044;1662.817;-167.654;1662.817
4.6575;4657500;185;;;;;;;;;;;;;;
4.66;4660000;159;;;;;;;;;;;;;;
4.6625;4662500;154;;;;;;;;;;;;;;
4.665;4665000;152;;;;;;;;;;;;;;
4.6675;4667500;137;;;;;;;;;;;;;;
4.67;4670000;167;;;;;;;;;;;;;;
4.6725;4672500;172;;;;;;;;;;;;;;
4.675;4675000;156;;;;;;;;;;;;;;
4.6775;4677500;170;;;;;;;;;;;;;;
4.68;4680000;397;;;;;;;;;;;;;;
4.6825;4682500;232;;;;;;;;;;;;;;
4.685;4685000;168;4684679;129.954;-463.482;129.954;469.111;-116.301;469.111;4684239;-26.035;-136.406;-26.035;1658.863;-170.209;1658.863
4.6875;4687500;168;;;;;;;;;;;;;;
4.69;4690000;142;;;;;;;;;;;;;;
4.6925;4692500;154;;;;;;;;;;;;;;
4.695;4695000;173;;;;;;;;;;;;;;
4.6975;4697500;152;;;;;;;;;;;;;;
4.7;4700000;167;;;;;;;;;;;;;;
4.7025;4702500;135;;;;;;;;;;;;;;
4.705;4705000;136;;;;;;;;;;;;;;
4.7075;4707500;157;;;;;;;;;;;;;;
4.71;4710000;33;;;;;;;;;;;;;;
4.7125;4712500;281;4713689;129.983;-463.451;129.984;478.468;-112.673;478.468;4713240;-26.045;-136.461;-26.045;1661.67;-170.448;1661.67
4.715;4715000;202;;;;;;;;;;;;;;
4.7175;4717500;168;;;;;;;;;;;;;;
4.72;4720000;167;;;;;;;;;;;;;;
4.7225;4722500;153;;;;;;;;;;;;;;
4.725;4725000;136;;;;;;;;;;;;;;
4.7275;4727500;135;;;;;;;;;;;;;;
4.73;4730000;141;;;;;;;;;;;;;;
4.7325;4732500;169;;;;;;;;;;;;;;
4.735;4735000;155;4735285;130.036;-463.392;130.036;478.169;-112.29;478.169;4734845;-25.895;-136.439;-25.895;1661.712;-173.301;1661.712
4.7375;4737500;152;;;;;;;;;;;;;;
4.74;4740000;347;;;;;;;;;;;;;;
4.7425;4742500;205;;;;;;;;;;;;;;
4.745;4745000;153;;;;;;;;;;;;;;
4.7475;4747500;142;;;;;;;;;;;;;;
4.75;4750000;143;;;;;;;;;;;;;;
4.7525;4752500;153;;;;;;;;;;;;;;
4.755;4755000;155;;;;;;;;;;;;;;
4.7575;4757500;170;;;;;;;;;;;;;;
4.76;4760000;298;;;;;;;;;;;;;;
4.7625;4762500;302;;;;;;;;;;;;;;
4.765;4765000;184;4765757;129.976;-463.365;129.976;485.761;-111.925;485.761;4765308;-25.766;-136.492;-25.766;1667.876;-174.261;1667.876
4.7675;4767500;171;;;;;;;;;;;;;;
4.77;4770000;152;;;;;;;;;;;;;;
4.7725;4772500;172;;;;;;;;;;;;;;
4.775;4775000;153;;;;;;;;;;;;;;
4.7775;4777500;172;;;;;;;;;;;;;;
4.78;4780000;157;;;;;;;;;;;;;;
4.7825;4782500;136;;;;;;;;;;;;;;
4.785;4785000;126;;;;;;;;;;;;;;
4.7875;4787500;155;;;;;;;;;;;;;;
4.79;4790000;168;;;;;;;;;;;;;;
4.7925;4792500;350;;;;;;;;;;;;;;
4.795;4795000;221;4794749;129.894;-463.499;129.894;479.41;-108.954;479.41;4794308;-25.954;-136.457;-25.954;1659.732;-173.86;1659.732
4.7975;4797500;189;;;;;;;;;;;;;;
4.8;4800000;171;;;;;;;;;;;;;;
4.8025;4802500;128;;;;;;;;;;;;;;
4.805;4805000;144;;;;;;;;;;;;;;
4.8075;4807500;137;;;;;;;;;;;;;;
4.81;4810000;168;;;;;;;;;;;;;;
4.8125;4812500;154;;;;;;;;;;;;;;
4.815;4815000;157;;;;;;;;4815913;-25.852;-136.466;-25.852;1657.246;-176.105;1657.246
4.8175;4817500;173;4816362;130.006;-463.321;130.006;488.252;-112.256;488.252;;;;;;;
4.82;4820000;409;;;;;;;;;;;;;;
4.8225;4822500;270;;;;;;;;;;;;;;
4.825;4825000;171;;;;;;;;;;;;;;
4.8275;4827500;169;;;;;;;;;;;;;;
4.83;4830000;170;;;;;;;;;;;;;;
4.8325;4832500;155;;;;;;;;;;;;;;
4.835;4835000;184;;;;;;;;;;;;;;
4.8375;4837500;155;;;;;;;;;;;;;;
4.84;4840000;168;;;;;;;;;;;;;;
4.8425;4842500;379;;;;;;;;;;;;;;
4.845;4845000;216;;;;;;;;;;;;;;
4.8475;4847500;166;4846729;129.971;-463.451;129.971;490.965;-112.331;490.965;4846289;-25.834;-136.377;-25.834;1653.571;-174.737;1653.571
4.85;4850000;153;;;;;;;;;;;;;;
4.8525;4852500;174;;;;;;;;;;;;;;
4.855;4855000;156;;;;;;;;;;;;;;
4.8575;4857500;154;;;;;;;;;;;;;;
4.86;4860000;159;;;;;;;;;;;;;;
4.8625;4862500;136;;;;;;;;;;;;;;
4.865;4865000;134;;;;;;;;;;;;;;
4.8675;4867500;138;;;;;;;;;;;;;;
4.87;4870000;143;;;;;;;;;;;;;;
4.8725;4872500;428;;;;;;;;;;;;;;
4.875;4875000;265;4875737;129.945;-463.458;129.945;487.416;-111.964;487.416;4875290;-25.988;-136.323;-25.988;1650.517;-172.125;1650.517
4.8775;4877500;188;;;;;;;;;;;;;;
4.88;4880000;155;;;;;;;;;;;;;;
4.8825;4882500;139;;;;;;;;;;;;;;
4.885;4885000;153;;;;;;;;;;;;;;
4.8875;4887500;137;;;;;;;;;;;;;;
4.89;4890000;142;;;;;;;;;;;;;;
4.8925;4892500;154;;;;;;;;;;;;;;
4.895;4895000;157;;;;;;;;;;;;;;
4.8975;4897500;171;;;;;;;;;;;;;;
4.9;4900000;158;;;;;;;;;;;;;;
4.9025;4902500;318;;;;;;;;;;;;;;
4.905;4905000;200;4906193;129.944;-463.49;129.944;489.296;-117.304;489.296;4905753;-25.89;-136.29;-25.89;1650.679;-172.269;1650.679
4.9075;4907500;157;;;;;;;;;;;;;;
4.91;4910000;154;;;;;;;;;;;;;;
4.9125;4912500;174;;;;;;;;;;;;;;
4.915;4915000;175;;;;;;;;;;;;;;
4.9175;4917500;155;;;;;;;;;;;;;;
4.92;4920000;141;;;;;;;;;;;;;;
4.9225;4922500;24;;;;;;;;;;;;;;
4.925;4925000;264;;;;;;;;;;;;;;
4.9275;4927500;184;;;;;;;;;;;;;;
4.93;4930000;159;;;;;;;;;;;;;;
4.9325;4932500;157;;;;;;;;;;;;;;
4.935;4935000;182;;;;;;;;4936216;-25.956;-136.289;-25.956;1653.895;-172.405;1653.895
4.9375;4937500;152;4936663;129.992;-463.569;129.992;489.331;-118.438;489.331;;;;;;;
4.94;4940000;141;;;;;;;;;;;;;;
4.9425;4942500;136;;;;;;;;;;;;;;
4.945;4945000;153;;;;;;;;;;;;;;
4.9475;4947500;139;;;;;;;;;;;;;;
4.95;4950000;152;;;;;;;;;;;;;;
4.9525;4952500;333;;;;;;;;;;;;;;
4.955;4955000;329;;;;;;;;;;;;;;
4.9575;4957500;232;;;;;;;;;;;;;;
4.96;4960000;159;;;;;;;;;;;;;;
4.9625;4962500;158;;;;;;;;;;;;;;
4.965;4965000;153;;;;;;;;;;;;;;
4.9675;4967500;155;4967119;130.02;-463.54;130.02;486.739;-116.454;486.739;4966679;-25.842;-136.227;-25.842;1646.013;-174.285;1646.013
4.97;4970000;167;;;;;;;;;;;;;;
4.9725;4972500;154;;;;;;;;;;;;;;
4.975;4975000;173;;;;;;;;;;;;;;
4.9775;4977500;154;;;;;;;;;;;;;;
4.98;4980000;150;;;;;;;;;;;;;;
4.9825;4982500;415;;;;;;;;;;;;;;
4.985;4985000;253;;;;;;;;;;;;;;
4.9875;4987500;188;;;;;;;;;;;;;;
4.99;4990000;174;;;;;;;;;;;;;;
4.9925;4992500;183;;;;;;;;;;;;;;
4.995;4995000;176;;;;;;;;;;;;;;
4.9975;4997500;154;4997591;130.039;-463.604;130.04;491.715;-115.444;491.715;4997142;-25.824;-136.358;-25.824;1646.837;-175.633;1646.837
5.0;5000000;157;;;;;;;;;;;;;;
5.0025;5002500;128;;;;;;;;;;;;;;
5.005;5005000;135;;;;;;;;;;;;;;
5.0075;5007500;155;;;;;;;;;;;;;;
5.01;5010000;151;;;;;;;;;;;;;;
5.0125;5012500;396;;;;;;;;;;;;;;
5.015;5015000;282;;;;;;;;;;;;;;
5.0175;5017500;191;;;;;;;;;;;;;;
5.02;5020000;173;;;;;;;;;;;;;;
5.0225;5022500;138;;;;;;;;;;;;;;
5.025;5025000;127;;;;;;;;5026143;-25.833;-136.366;-25.833;1649.37;-176.477;1649.37
5.0275;5027500;155;5026583;129.912;-463.671;129.912;490.317;-115.359;490.317;;;;;;;
5.03;5030000;141;;;;;;;;;;;;;;
5.0325;5032500;154;;;;;;;;;;;;;;
5.035;5035000;155;;;;;;;;;;;;;;
5.0375;5037500;170;;;;;;;;;;;;;;
5.04;5040000;141;;;;;;;;;;;;;;
5.0425;5042500;315;;;;;;;;;;;;;;
5.045;5045000;281;;;;;;;;;;;;;;
5.0475;5047500;187;5048194;129.901;-463.753;129.901;491.613;-116.154;491.613;5047747;-25.791;-136.398;-25.791;1657.027;-180.34;1657.027
5.05;5050000;182;;;;;;;;;;;;;;
5.0525;5052500;156;;;;;;;;;;;;;;
5.055;5055000;154;;;;;;;;;;;;;;
5.0575;5057500;151;;;;;;;;;;;;;;
5.06;5060000;138;;;;;;;;;;;;;;
5.0625;5062500;154;;;;;;;;;;;;;;
5.065;5065000;126;;;;;;;;;;;;;;
5.0675;5067500;138;;;;;;;;;;;;;;
5.07;5070000;143;;;;;;;;;;;;;;
5.0725;5072500;154;;;;;;;;;;;;;;
5.075;5075000;328;;;;;;;;;;;;;;
5.0775;5077500;235;5078651;130.0;-463.861;130.0;494.595;-116.033;494.595;5078210;-25.874;-136.465;-25.874;1658.613;-178.323;1658.613
5.08;5080000;159;;;;;;;;;;;;;;
5.0825;5082500;138;;;;;;;;;;;;;;
5.085;5085000;125;;;;;;;;;;;;;;
5.0875;5087500;156;;;;;;;;;;;;;;
5.09;5090000;171;;;;;;;;;;;;;;
5.0925;5092500;174;;;;;;;;;;;;;;
5.095;5095000;157;;;;;;;;;;;;;;
5.0975;5097500;154;;;;;;;;;;;;;;
5.1;5100000;168;;;;;;;;;;;;;;
5.1025;5102500;154;;;;;;;;;;;;;;
5.105;5105000;348;;;;;;;;;;;;;;
5.1075;5107500;216;5107572;129.917;-463.836;129.917;488.678;-117.669;488.678;5107125;-25.66;-136.455;-25.66;1660.557;-182.095;1660.557
5.11;5110000;172;;;;;;;;;;;;;;
5.1125;5112500;159;;;;;;;;;;;;;;
5.115;5115000;175;;;;;;;;;;;;;;
5.1175;5117500;154;;;;;;;;;;;;;;
5.12;5120000;166;;;;;;;;;;;;;;
5.1225;5122500;152;;;;;;;;;;;;;;
5.125;5125000;136;;;;;;;;;;;;;;
5.1275;5127500;153;;;;;;;;5128729;-25.78;-136.422;-25.78;1664.155;-179.99;1664.155
5.13;5130000;167;5129169;129.905;-463.86;129.906;492.681;-120.973;492.681;;;;;;;
5.1325;5132500;364;;;;;;;;;;;;;;
5.135;5135000;317;;;;;;;;;;;;;;
5.1375;5137500;221;;;;;;;;;;;;;;
5.14;5140000;183;;;;;;;;;;;;;;
5.1425;5142500;138;;;;;;;;;;;;;;
5.145;5145000;152;;;;;;;;;;;;;;
5.1475;5147500;154;;;;;;;;;;;;;;
5.15;5150000;141;;;;;;;;;;;;;;
5.1525;5152500;152;;;;;;;;;;;;;;
5.155;5155000;397;;;;;;;;;;;;;;
5.1575;5157500;267;;;;;;;;;;;;;;
5.16;5160000;190;5159465;129.772;-463.756;129.773;494.735;-118.862;494.735;5159018;-25.888;-136.427;-25.888;1666.259;-178.865;1666.259
5.1625;5162500;139;;;;;;;;;;;;;;
5.165;5165000;153;;;;;;;;;;;;;;
5.1675;5167500;137;;;;;;;;;;;;;;
5.17;5170000;150;;;;;;;;;;;;;;
5.1725;5172500;171;;;;;;;;;;;;;;
5.175;5175000;154;;;;;;;;;;;;;;
5.1775;5177500;143;;;;;;;;;;;;;;
5.18;5180000;157;;;;;;;;;;;;;;
5.1825;5182500;127;;;;;;;;;;;;;;
5.185;5185000;58;;;;;;;;;;;;;;
5.1875;5187500;262;5188459;129.829;-463.608;129.829;489.248;-119.044;489.248;5188019;-25.765;-136.358;-25.765;1666.509;-176.485;1666.509
5.19;5190000;203;;;;;;;;;;;;;;
5.1925;5192500;186;;;;;;;;;;;;;;
5.195;5195000;175;;;;;;;;;;;;;;
5.1975;5197500;169;;;;;;;;;;;;;;
5.2;5200000;139;;;;;;;;;;;;;;
5.2025;5202500;153;;;;;;;;;;;;;;
5.205;5205000;154;;;;;;;;;;;;;;
5.2075;5207500;137;;;;;;;;;;;;;;
5.21;5210000;141;5210070;129.724;-463.583;129.724;491.473;-121.404;491.473;5209623;-25.782;-136.415;-25.782;1667.621;-180.785;1667.621
5.2125;5212500;152;;;;;;;;;;;;;;
5.215;5215000;377;;;;;;;;;;;;;;
5.2175;5217500;231;;;;;;;;;;;;;;
5.22;5220000;167;;;;;;;;;;;;;;
5.2225;5222500;138;;;;;;;;;;;;;;
5.225;5225000;133;;;;;;;;;;;;;;
5.2275;5227500;155;;;;;;;;;;;;;;
5.23;5230000;159;;;;;;;;;;;;;;
5.2325;5232500;154;;;;;;;;;;;;;;
5.235;5235000;8;;;;;;;;;;;;;;
5.2375;5237500;295;;;;;;;;;;;;;;
5.24;5240000;190;5240527;129.783;-463.59;129.784;484.4;-122.772;484.4;5240087;-25.695;-136.359;-25.695;1660.802;-182.246;1660.802
5.2425;5242500;151;;;;;;;;;;;;;;
5.245;5245000;136;;;;;;;;;;;;;;
5.2475;5247500;135;;;;;;;;;;;;;;
5.25;5250000;142;;;;;;;;;;;;;;
5.2525;5252500;171;;;;;;;;;;;;;;
5.255;5255000;153;;;;;;;;;;;;;;
5.2575;5257500;169;;;;;;;;;;;;;;
5.26;5260000;139;;;;;;;;;;;;;;
5.2625;5262500;127;;;;;;;;;;;;;;
5.265;5265000;149;;;;;;;;;;;;;;
5.2675;5267500;328;;;;;;;;;;;;;;
5.27;5270000;203;5269534;129.84;-463.487;129.84;489.93;-121.883;489.93;5269087;-25.648;-136.355;-25.648;1661.325;-180.134;1661.325
5.2725;5272500;170;;;;;;;;;;;;;;
5.275;5275000;158;;;;;;;;;;;;;;
5.2775;5277500;172;;;;;;;;;;;;;;
5.28;5280000;157;;;;;;;;;;;;;;
5.2825;5282500;125;;;;;;;;;;;;;;
5.285;5285000;125;;;;;;;;;;;;;;
5.2875;5287500;152;;;;;;;;;;;;;;
5.29;5290000;142;5291132;129.734;-463.566;129.734;491.683;-121.476;491.683;5290692;-25.769;-136.265;-25.769;1658.321;-176.815;1658.321
5.2925;5292500;172;;;;;;;;;;;;;;
5.295;5295000;336;;;;;;;;;;;;;;
5.2975;5297500;282;;;;;;;;;;;;;;
5.3;5300000;200;;;;;;;;;;;;;;
5.3025;5302500;142;;;;;;;;;;;;;;
5.305;5305000;138;;;;;;;;;;;;;;
5.3075;5307500;137;;;;;;;;;;;;;;
5.31;5310000;149;;;;;;;;;;;;;;
5.3125;5312500;172;;;;;;;;;;;;;;
5.315;5315000;154;5315624;129.781;-463.695;129.781;497.286;-122.403;497.286;5315176;-25.816;-136.235;-25.816;1662.467;-179.349;1662.467
5.3175;5317500;376;;;;;;;;;;;;;;
5.32;5320000;218;;;;;;;;;;;;;;
5.3225;5322500;156;;;;;;;;;;;;;;
5.325;5325000;157;;;;;;;;;;;;;;
5.3275;5327500;138;;;;;;;;;;;;;;
5.33;5330000;167;;;;;;;;;;;;;;
5.3325;5332500;169;;;;;;;;;;;;;;
5.335;5335000;173;;;;;;;;;;;;;;
5.3375;5337500;169;;;;;;;;;;;;;;
5.34;5340000;140;;;;;;;;5341210;-25.855;-136.28;-25.855;1656.781;-179.132;1656.781
5.3425;5342500;135;5341650;130.002;-463.727;130.002;485.11;-122.845;485.11;;;;;;;
5.345;5345000;137;;;;;;;;;;;;;;
5.3475;5347500;406;;;;;;;;;;;;;;
5.35;5350000;265;;;;;;;;;;;;;;
5.3525;5352500;190;;;;;;;;;;;;;;
5.355;5355000;190;;;;;;;;;;;;;;
5.3575;5357500;173;;;;;;;;;;;;;;
5.36;5360000;140;;;;;;;;;;;;;;
5.3625;5362500;154;;;;;;;;;;;;;;
5.365;5365000;135;;;;;;;;;;;;;;
5.3675;5367500;157;;;;;;;;;;;;;;
5.37;5370000;169;;;;;;;;;;;;;;
5.3725;5372500;172;5371948;130.12;-463.544;130.12;471.792;-113.203;471.792;5371500;-25.569;-136.365;-25.569;1637.817;-186.362;1637.817
5.375;5375000;156;;;;;;;;;;;;;;
5.3775;5377500;317;;;;;;;;;;;;;;
5.38;5380000;221;;;;;;;;;;;;;;
5.3825;5382500;154;;;;;;;;;;;;;;
5.385;5385000;138;;;;;;;;;;;;;;
5.3875;5387500;139;;;;;;;;;;;;;;
5.39;5390000;150;;;;;;;;;;;;;;
5.3925;5392500;173;;;;;;;;;;;;;;
5.395;5395000;154;;;;;;;;;;;;;;
5.3975;5397500;33;;;;;;;;;;;;;;
5.4;5400000;265;;;;;;;;;;;;;;
5.4025;5402500;173;5402229;130.117;-462.906;130.117;498.077;-118.48;498.077;5401789;-25.663;-136.245;-25.663;1646.489;-174.419;1646.489
5.405;5405000;142;;;;;;;;;;;;;;
5.4075;5407500;139;;;;;;;;;;;;;;
5.41;5410000;167;;;;;;;;;;;;;;
5.4125;5412500;154;;;;;;;;;;;;;;
5.415;5415000;155;;;;;;;;;;;;;;
5.4175;5417500;171;;;;;;;;;;;;;;
5.42;5420000;156;;;;;;;;;;;;;;
5.4225;5422500;391;;;;;;;;;;;;;;
5.425;5425000;224;;;;;;;;;;;;;;
5.4275;5427500;170;;;;;;;;;;;;;;
5.43;5430000;173;5431237;129.985;-463.032;129.985;495.486;-122.619;495.486;5430790;-25.679;-136.331;-25.679;1645.102;-175.323;1645.102
5.4325;5432500;157;;;;;;;;;;;;;;
5.435;5435000;155;;;;;;;;;;;;;;
5.4375;5437500;153;;;;;;;;;;;;;;
5.44;5440000;141;;;;;;;;;;;;;;
5.4425;5442500;153;;;;;;;;;;;;;;
5.445;5445000;126;;;;;;;;;;;;;;
5.4475;5447500;9;;;;;;;;;;;;;;
5.45;5450000;299;;;;;;;;;;;;;;
5.4525;5452500;206;5452835;129.867;-463.006;129.867;461.524;-127.425;461.524;5452395;-25.701;-136.207;-25.701;1639.847;-181.87;1639.847
5.455;5455000;191;;;;;;;;;;;;;;
5.4575;5457500;155;;;;;;;;;;;;;;
5.46;5460000;156;;;;;;;;;;;;;;
5.4625;5462500;155;;;;;;;;;;;;;;
5.465;5465000;152;;;;;;;;;;;;;;
5.4675;5467500;141;;;;;;;;;;;;;;
5.47;5470000;170;;;;;;;;;;;;;;
5.4725;5472500;173;;;;;;;;;;;;;;
5.475;5475000;182;;;;;;;;;;;;;;
5.4775;5477500;0;;;;;;;;;;;;;;
5.48;5480000;328;;;;;;;;;;;;;;
5.4825;5482500;206;5483306;130.114;-462.969;130.114;462.948;-128.491;462.948;5482857;-25.648;-136.1;-25.648;1647.542;-176.276;1647.542
5.485;5485000;150;;;;;;;;;;;;;;
5.4875;5487500;140;;;;;;;;;;;;;;
5.49;5490000;170;;;;;;;;;;;;;;
5.4925;5492500;156;;;;;;;;;;;;;;
5.495;5495000;174;;;;;;;;;;;;;;
5.4975;5497500;171;;;;;;;;;;;;;;
5.5;5500000;156;;;;;;;;;;;;;;
5.5025;5502500;154;;;;;;;;;;;;;;
5.505;5505000;135;;;;;;;;;;;;;;
5.5075;5507500;138;;;;;;;;;;;;;;
5.51;5510000;349;;;;;;;;;;;;;;
5.5125;5512500;222;5512298;129.964;-463.116;129.964;463.863;-124.692;463.863;5511858;-25.567;-136.267;-25.567;1644.79;-174.9;1644.79
5.515;5515000;203;;;;;;;;;;;;;;
5.5175;5517500;183;;;;;;;;;;;;;;
5.52;5520000;140;;;;;;;;;;;;;;
5.5225;5522500;154;;;;;;;;;;;;;;
5.525;5525000;152;;;;;;;;;;;;;;
5.5275;5527500;155;;;;;;;;;;;;;;
5.53;5530000;143;;;;;;;;;;;;;;
5.5325;5532500;172;;;;;;;;5533463;-25.612;-136.396;-25.612;1642.175;-171.842;1642.175
5.535;5535000;171;5533910;129.908;-463.024;129.908;482.232;-121.082;482.232;;;;;;;
5.5375;5537500;397;;;;;;;;;;;;;;
5.54;5540000;281;;;;;;;;;;;;;;
5.5425;5542500;171;;;;;;;;;;;;;;
5.545;5545000;141;;;;;;;;;;;;;;
5.5475;5547500;157;;;;;;;;;;;;;;
5.55;5550000;169;;;;;;;;;;;;;;
5.5525;5552500;153;;;;;;;;;;;;;;
5.555;5555000;153;;;;;;;;;;;;;;
5.5575;5557500;168;;;;;;;;;;;;;;
5.56;5560000;361;;;;;;;;;;;;;;
5.5625;5562500;215;;;;;;;;;;;;;;
5.565;5565000;155;5564366;129.836;-463.041;129.836;479.558;-121.153;479.558;5563926;-25.753;-136.39;-25.753;1637.067;-175.938;1637.067
5.5675;5567500;140;;;;;;;;;;;;;;
5.57;5570000;169;;;;;;;;;;;;;;
5.5725;5572500;153;;;;;;;;;;;;;;
5.575;5575000;155;;;;;;;;;;;;;;
5.5775;5577500;150;;;;;;;;;;;;;;
5.58;5580000;139;;;;;;;;;;;;;;
5.5825;5582500;152;;;;;;;;;;;;;;
5.585;5585000;153;;;;;;;;;;;;;;
5.5875;5587500;138;;;;;;;;;;;;;;
5.59;5590000;409;;;;;;;;;;;;;;
5.5925;5592500;266;5593200;129.895;-463.087;129.895;476.143;-126.033;476.143;5592753;-25.753;-136.353;-25.753;1637.026;-175.453;1637.026
5.595;5595000;219;;;;;;;;;;;;;;
5.5975;5597500;158;;;;;;;;;;;;;;
5.6;5600000;143;;;;;;;;;;;;;;
5.6025;5602500;127;;;;;;;;;;;;;;
5.605;5605000;128;;;;;;;;;;;;;;
5.6075;5607500;154;;;;;;;;;;;;;;
5.61;5610000;159;;;;;;;;;;;;;;
5.6125;5612500;153;;;;;;;;;;;;;;
5.615;5615000;154;5614798;129.934;-463.277;129.934;471.148;-124.106;471.148;5614358;-25.758;-136.417;-25.758;1635.675;-174.993;1635.675
5.6175;5617500;144;;;;;;;;;;;;;;
5.62;5620000;328;;;;;;;;;;;;;;
5.6225;5622500;220;;;;;;;;;;;;;;
5.625;5625000;152;;;;;;;;;;;;;;
5.6275;5627500;140;;;;;;;;;;;;;;
5.63;5630000;142;;;;;;;;;;;;;;
5.6325;5632500;171;;;;;;;;;;;;;;
5.635;5635000;155;;;;;;;;;;;;;;
5.6375;5637500;168;;;;;;;;;;;;;;
5.64;5640000;381;;;;;;;;;;;;;;
5.6425;5642500;282;;;;;;;;;;;;;;
5.645;5645000;172;5645269;129.891;-463.385;129.891;469.028;-125.338;469.028;5644820;-25.727;-136.409;-25.727;1642.703;-176.306;1642.703
5.6475;5647500;154;;;;;;;;;;;;;;
5.65;5650000;170;;;;;;;;;;;;;;
5.6525;5652500;171;;;;;;;;;;;;;;
5.655;5655000;172;;;;;;;;;;;;;;
5.6575;5657500;151;;;;;;;;;;;;;;
5.66;5660000;156;;;;;;;;;;;;;;
5.6625;5662500;152;;;;;;;;;;;;;;
5.665;5665000;124;;;;;;;;;;;;;;
5.6675;5667500;154;;;;;;;;;;;;;;
5.67;5670000;0;;;;;;;;;;;;;;
5.6725;5672500;333;;;;;;;;;;;;;;
5.675;5675000;216;5674262;129.813;-463.28;129.813;476.639;-124.759;476.639;5673821;-25.715;-136.36;-25.715;1649.818;-180.178;1649.818
5.6775;5677500;169;;;;;;;;;;;;;;
5.68;5680000;158;;;;;;;;;;;;;;
5.6825;5682500;124;;;;;;;;;;;;;;
5.685;5685000;124;;;;;;;;;;;;;;
5.6875;5687500;136;;;;;;;;;;;;;;
5.69;5690000;139;;;;;;;;;;;;;;
5.6925;5692500;171;;;;;;;;;;;;;;
5.695;5695000;153;5695874;129.88;-463.467;129.88;470.745;-122.459;470.745;5695426;-25.65;-136.429;-25.65;1649.14;-180.794;1649.14
5.6975;5697500;167;;;;;;;;;;;;;;
5.7;5700000;413;;;;;;;;;;;;;;
5.7025;5702500;232;;;;;;;;;;;;;;
5.705;5705000;183;;;;;;;;;;;;;;
5.7075;5707500;151;;;;;;;;;;;;;;
5.71;5710000;169;;;;;;;;;;;;;;
5.7125;5712500;154;;;;;;;;;;;;;;
5.715;5715000;154;;;;;;;;;;;;;;
5.7175;5717500;168;;;;;;;;;;;;;;
5.72;5720000;139;5720264;129.889;-463.333;129.889;479.582;-126.398;479.582;5719824;-25.581;-136.317;-25.581;1648.058;-181.38;1648.058
5.7225;5722500;327;;;;;;;;;;;;;;
5.725;5725000;219;;;;;;;;;;;;;;
5.7275;5727500;156;;;;;;;;;;;;;;
5.73;5730000;155;;;;;;;;;;;;;;
5.7325;5732500;155;;;;;;;;;;;;;;
5.735;5735000;175;;;;;;;;;;;;;;
5.7375;5737500;170;;;;;;;;;;;;;;
5.74;5740000;156;;;;;;;;;;;;;;
5.7425;5742500;126;;;;;;;;;;;;;;
5.745;5745000;127;;;;;;;;5745857;-25.559;-136.248;-25.559;1649.655;-179.748;1649.655
5.7475;5747500;156;5746306;129.787;-463.407;129.787;490.166;-126.641;490.166;;;;;;;
5.75;5750000;168;;;;;;;;;;;;;;
5.7525;5752500;376;;;;;;;;;;;;;;
5.755;5755000;238;;;;;;;;;;;;;;
5.7575;5757500;176;;;;;;;;;;;;;;
5.76;5760000;169;;;;;;;;;;;;;;
5.7625;5762500;126;;;;;;;;;;;;;;
5.765;5765000;153;;;;;;;;;;;;;;
5.7675;5767500;136;;;;;;;;;;;;;;
5.77;5770000;141;;;;;;;;;;;;;;
5.7725;5772500;171;;;;;;;;;;;;;;
5.775;5775000;155;;;;;;;;5776147;-25.476;-136.121;-25.476;1646.36;-184.323;1646.36
5.7775;5777500;171;5776587;129.624;-463.503;129.624;486.658;-125.121;486.658;;;;;;;
5.78;5780000;2;;;;;;;;;;;;;;
5.7825;5782500;285;;;;;;;;;;;;;;
5.785;5785000;186;;;;;;;;;;;;;;
5.7875;5787500;152;;;;;;;;;;;;;;
5.79;5790000;172;;;;;;;;;;;;;;
5.7925;5792500;157;;;;;;;;;;;;;;
5.795;5795000;156;;;;;;;;;;;;;;
5.7975;5797500;170;;;;;;;;;;;;;;
5.8;5800000;141;;;;;;;;;;;;;;
5.8025;5802500;329;;;;;;;;;;;;;;
5.805;5805000;237;;;;;;;;;;;;;;
5.8075;5807500;188;5807057;129.7;-463.471;129.7;476.325;-125.865;476.325;5806610;-25.551;-136.019;-25.551;1645.417;-187.357;1645.417
5.81;5810000;155;;;;;;;;;;;;;;
5.8125;5812500;154;;;;;;;;;;;;;;
5.815;5815000;171;;;;;;;;;;;;;;
5.8175;5817500;150;;;;;;;;;;;;;;
5.82;5820000;157;;;;;;;;;;;;;;
5.8225;5822500;135;;;;;;;;;;;;;;
5.825;5825000;142;;;;;;;;;;;;;;
5.8275;5827500;378;;;;;;;;;;;;;;
5.83;5830000;232;;;;;;;;;;;;;;
5.8325;5832500;203;;;;;;;;;;;;;;
5.835;5835000;158;5836051;129.772;-463.41;129.772;491.883;-127.884;491.883;5835611;-25.585;-135.959;-25.585;1649.771;-184.114;1649.771
5.8375;5837500;171;;;;;;;;;;;;;;
5.84;5840000;137;;;;;;;;;;;;;;
5.8425;5842500;136;;;;;;;;;;;;;;
5.845;5845000;154;;;;;;;;;;;;;;
5.8475;5847500;137;;;;;;;;;;;;;;
5.85;5850000;168;;;;;;;;;;;;;;
5.8525;5852500;2;;;;;;;;;;;;;;
5.855;5855000;285;;;;;;;;;;;;;;
5.8575;5857500;216;;;;;;;;;;;;;;
5.86;5860000;173;;;;;;;;;;;;;;
5.8625;5862500;156;;;;;;;;;;;;;;
5.865;5865000;143;;;;;;;;5865987;-25.568;-136.005;-25.568;1646.032;-187.159;1646.032
5.8675;5867500;128;5866434;129.713;-463.572;129.713;493.977;-124.553;493.977;;;;;;;
5.87;5870000;168;;;;;;;;;;;;;;
5.8725;5872500;154;;;;;;;;;;;;;;
5.875;5875000;173;;;;;;;;;;;;;;
5.8775;5877500;169;;;;;;;;;;;;;;
5.88;5880000;137;;;;;;;;;;;;;;
5.8825;5882500;382;;;;;;;;;;;;;;
5.885;5885000;270;;;;;;;;;;;;;;
5.8875;5887500;186;5888031;129.663;-463.531;129.663;498.153;-123.138;498.153;5887591;-25.589;-136.037;-25.589;1643.793;-184.801;1643.793
5.89;5890000;166;;;;;;;;;;;;;;
5.8925;5892500;156;;;;;;;;;;;;;;
5.895;5895000;157;;;;;;;;;;;;;;
5.8975;5897500;154;;;;;;;;;;;;;;
5.9;5900000;158;;;;;;;;;;;;;;
5.9025;5902500;153;;;;;;;;;;;;;;
5.905;5905000;136;;;;;;;;;;;;;;
5.9075;5907500;137;;;;;;;;;;;;;;
5.91;5910000;143;;;;;;;;;;;;;;
5.9125;5912500;171;;;;;;;;;;;;;;
5.915;5915000;328;;;;;;;;;;;;;;
5.9175;5917500;216;5916952;129.67;-463.327;129.67;502.12;-123.106;502.12;5916505;-25.639;-136.043;-25.639;1644.728;-187.373;1644.728
5.92;5920000;158;;;;;;;;;;;;;;
5.9225;5922500;136;;;;;;;;;;;;;;
5.925;5925000;152;;;;;;;;;;;;;;
5.9275;5927500;138;;;;;;;;;;;;;;
5.93;5930000;141;;;;;;;;;;;;;;
5.9325;5932500;156;;;;;;;;;;;;;;
5.935;5935000;157;;;;;;;;;;;;;;
5.9375;5937500;169;;;;;;;;;;;;;;
5.94;5940000;138;;;;;;;;;;;;;;
5.9425;5942500;25;;;;;;;;;;;;;;
5.945;5945000;248;;;;;;;;;;;;;;
5.9475;5947500;175;5947409;129.769;-463.481;129.769;505.014;-126.575;505.014;5946968;-25.76;-136.17;-25.76;1648.242;-187.629;1648.242
5.95;5950000;184;;;;;;;;;;;;;;
5.9525;5952500;184;;;;;;;;;;;;;;
5.955;5955000;156;;;;;;;;;;;;;;
5.9575;5957500;144;;;;;;;;;;;;;;
5.96;5960000;138;;;;;;;;;;;;;;
5.9625;5962500;143;;;;;;;;;;;;;;
5.965;5965000;127;;;;;;;;;;;;;;
5.9675;5967500;127;;;;;;;;;;;;;;
5.97;5970000;150;;;;;;;;;;;;;;
5.9725;5972500;18;;;;;;;;;;;;;;
5.975;5975000;312;;;;;;;;;;;;;;
5.9775;5977500;219;5977880;129.661;-463.426;129.661;500.326;-125.059;500.326;5977432;-25.796;-136.072;-25.796;1646.33;-187.435;1646.33
5.98;5980000;173;;;;;;;;;;;;;;
5.9825;5982500;136;;;;;;;;;;;;;;
5.985;5985000;152;;;;;;;;;;;;;;
5.9875;5987500;137;;;;;;;;;;;;;;
5.99;5990000;168;;;;;;;;;;;;;;
5.9925;5992500;172;;;;;;;;;;;;;;
5.995;5995000;408;;;;;;;;;;;;;;
5.9975;5997500;264;;;;;;;;;;;;;;
6.0;6000000;167;;;;;;;;;;;;;;
6.0025;6002500;156;;;;;;;;;;;;;;
6.005;6005000;154;;;;;;;;;;;;;;
6.0075;6007500;138;6008335;129.656;-463.245;129.656;507.247;-124.931;507.247;6007895;-25.885;-136.027;-25.885;1639.701;-192.064;1639.701
6.01;6010000;168;;;;;;;;;;;;;;
6.0125;6012500;154;;;;;;;;;;;;;;
6.015;6015000;172;;;;;;;;;;;;;;
6.0175;6017500;170;;;;;;;;;;;;;;
6.02;6020000;138;;;;;;;;;;;;;;
6.0225;6022500;249;;;;;;;;;;;;;;
6.025;6025000;298;;;;;;;;;;;;;;
6.0275;6027500;188;;;;;;;;;;;;;;
6.03;6030000;168;;;;;;;;;;;;;;
6.0325;6032500;183;;;;;;;;;;;;;;
6.035;6035000;174;;;;;;;;;;;;;;
6.0375;6037500;151;;;;;;;;6038358;-25.878;-135.96;-25.878;1638.653;-192.085;1638.653
6.04;6040000;156;6038805;129.767;-463.123;129.767;525.635;-130.06;525.635;;;;;;;
6.0425;6042500;152;;;;;;;;;;;;;;
6.045;6045000;152;;;;;;;;;;;;;;
6.0475;6047500;156;;;;;;;;;;;;;;
6.05;6050000;142;;;;;;;;;;;;;;
6.0525;6052500;155;;;;;;;;;;;;;;
6.055;6055000;365;;;;;;;;;;;;;;
6.0575;6057500;221;;;;;;;;;;;;;;
6.06;6060000;184;;;;;;;;;;;;;;
6.0625;6062500;137;;;;;;;;;;;;;;
6.065;6065000;152;;;;;;;;;;;;;;
6.0675;6067500;136;6067799;129.836;-463.244;129.836;528.228;-131.869;528.228;6067358;-25.755;-136.104;-25.755;1634.596;-189.481;1634.596
6.07;6070000;151;;;;;;;;;;;;;;
6.0725;6072500;155;;;;;;;;;;;;;;
6.075;6075000;157;;;;;;;;;;;;;;
6.0775;6077500;171;;;;;;;;;;;;;;
6.08;6080000;156;;;;;;;;;;;;;;
6.0825;6082500;135;;;;;;;;;;;;;;
6.085;6085000;367;;;;;;;;;;;;;;
6.0875;6087500;224;;;;;;;;;;;;;;
6.09;6090000;174;6089411;129.829;-463.293;129.829;522.817;-132.276;522.817;6088963;-25.815;-136.106;-25.815;1632.928;-184.82;1632.928
6.0925;6092500;184;;;;;;;;;;;;;;
6.095;6095000;156;;;;;;;;;;;;;;
6.0975;6097500;144;;;;;;;;;;;;;;
6.1;6100000;137;;;;;;;;;;;;;;
6.1025;6102500;152;;;;;;;;;;;;;;
6.105;6105000;135;;;;;;;;;;;;;;
6.1075;6107500;137;;;;;;;;;;;;;;
6.11;6110000;141;;;;;;;;;;;;;;
6.1125;6112500;152;;;;;;;;6113361;-25.769;-136.133;-25.769;1632.219;-191.766;1632.219
6.115;6115000;304;6113801;129.834;-463.332;129.834;517.676;-131.349;517.676;;;;;;;
6.1175;6117500;279;;;;;;;;;;;;;;
6.12;6120000;173;;;;;;;;;;;;;;
6.1225;6122500;141;;;;;;;;;;;;;;
6.125;6125000;137;;;;;;;;;;;;;;
6.1275;6127500;157;;;;;;;;;;;;;;
6.13;6130000;151;;;;;;;;;;;;;;
6.1325;6132500;153;;;;;;;;;;;;;;
6.135;6135000;154;;;;;;;;;;;;;;
6.1375;6137500;150;;;;;;;;;;;;;;
6.14;6140000;154;6139847;129.747;-463.541;129.747;522.855;-130.469;522.855;6139394;-25.81;-136.079;-25.81;1640.734;-188.74;1640.734
6.1425;6142500;125;;;;;;;;;;;;;;
6.145;6145000;349;;;;;;;;;;;;;;
6.1475;6147500;266;;;;;;;;;;;;;;
6.15;6150000;189;;;;;;;;;;;;;;
6.1525;6152500;171;;;;;;;;;;;;;;
6.155;6155000;185;;;;;;;;;;;;;;
6.1575;6157500;171;;;;;;;;;;;;;;
6.16;6160000;140;;;;;;;;;;;;;;
6.1625;6162500;152;;;;;;;;;;;;;;
6.165;6165000;126;;;;;;;;;;;;;;
6.1675;6167500;154;;;;;;;;;;;;;;
6.17;6170000;168;6170297;129.653;-463.544;129.653;515.962;-129.633;515.962;6169857;-25.734;-136.204;-25.734;1638.322;-188.491;1638.322
6.1725;6172500;155;;;;;;;;;;;;;;
6.175;6175000;392;;;;;;;;;;;;;;
6.1775;6177500;236;;;;;;;;;;;;;;
6.18;6180000;169;;;;;;;;;;;;;;
6.1825;6182500;138;;;;;;;;;;;;;;
6.185;6185000;136;;;;;;;;;;;;;;
6.1875;6187500;154;;;;;;;;;;;;;;
6.19;6190000;142;;;;;;;;;;;;;;
6.1925;6192500;173;;;;;;;;;;;;;;
6.195;6195000;0;;;;;;;;;;;;;;
6.1975;6197500;312;;;;;;;;;;;;;;
6.2;6200000;217;6200767;129.673;-463.565;129.673;514.226;-132.339;514.226;6200320;-25.752;-136.281;-25.752;1645.656;-195.691;1645.656
6.2025;6202500;152;;;;;;;;;;;;;;
6.205;6205000;156;;;;;;;;;;;;;;
6.2075;6207500;139;;;;;;;;;;;;;;
6.21;6210000;150;;;;;;;;;;;;;;
6.2125;6212500;173;;;;;;;;;;;;;;
6.215;6215000;154;;;;;;;;;;;;;;
6.2175;6217500;150;;;;;;;;;;;;;;
6.22;6220000;331;;;;;;;;;;;;;;
6.2225;6222500;264;;;;;;;;;;;;;;
6.225;6225000;200;;;;;;;;;;;;;;
6.2275;6227500;153;;;;;;;;;;;;;;
6.23;6230000;172;6229761;129.795;-463.591;129.795;516.515;-132.722;516.515;6229321;-25.679;-136.36;-25.679;1647.81;-197.719;1647.81
6.2325;6232500;174;;;;;;;;;;;;;;
6.235;6235000;158;;;;;;;;;;;;;;
6.2375;6237500;170;;;;;;;;;;;;;;
6.24;6240000;139;;;;;;;;;;;;;;
6.2425;6242500;153;;;;;;;;;;;;;;
6.245;6245000;135;;;;;;;;;;;;;;
6.2475;6247500;348;;;;;;;;;;;;;;
6.25;6250000;221;;;;;;;;6250925;-25.621;-136.356;-25.621;1651.607;-193.083;1651.607
6.2525;6252500;185;6251372;129.729;-463.579;129.729;516.064;-127.836;516.064;;;;;;;
6.255;6255000;166;;;;;;;;;;;;;;
6.2575;6257500;170;;;;;;;;;;;;;;
6.26;6260000;139;;;;;;;;;;;;;;
6.2625;6262500;127;;;;;;;;;;;;;;
6.265;6265000;136;;;;;;;;;;;;;;
6.2675;6267500;157;;;;;;;;;;;;;;
6.27;6270000;151;;;;;;;;;;;;;;
6.2725;6272500;174;;;;;;;;;;;;;;
6.275;6275000;155;;;;;;;;;;;;;;
6.2775;6277500;366;;;;;;;;;;;;;;
6.28;6280000;248;;;;;;;;;;;;;;
6.2825;6282500;160;6281829;129.788;-463.507;129.788;513.449;-125.382;513.449;6281389;-25.737;-136.376;-25.737;1650.402;-193.054;1650.402
6.285;6285000;141;;;;;;;;;;;;;;
6.2875;6287500;140;;;;;;;;;;;;;;
6.29;6290000;142;;;;;;;;;;;;;;
6.2925;6292500;154;;;;;;;;;;;;;;
6.295;6295000;154;;;;;;;;;;;;;;
6.2975;6297500;152;;;;;;;;;;;;;;
6.3;6300000;138;;;;;;;;;;;;;;
6.3025;6302500;135;;;;;;;;;;;;;;
6.305;6305000;153;;;;;;;;;;;;;;
6.3075;6307500;408;;;;;;;;;;;;;;
6.31;6310000;254;6310663;129.819;-463.53;129.819;515.339;-124.8;515.339;6310216;-25.713;-136.42;-25.713;1659.319;-196.089;1659.319
6.3125;6312500;190;;;;;;;;;;;;;;
6.315;6315000;171;;;;;;;;;;;;;;
6.3175;6317500;155;;;;;;;;;;;;;;
6.32;6320000;158;;;;;;;;;;;;;;
6.3225;6322500;136;;;;;;;;;;;;;;
6.325;6325000;136;;;;;;;;;;;;;;
6.3275;6327500;158;;;;;;;;;;;;;;
6.33;6330000;152;;;;;;;;;;;;;;
6.3325;6332500;174;6332260;129.703;-463.619;129.703;507.509;-122.498;507.509;6331820;-25.702;-136.486;-25.702;1655.979;-198.097;1655.979
6.335;6335000;155;;;;;;;;;;;;;;
6.3375;6337500;348;;;;;;;;;;;;;;
6.34;6340000;223;;;;;;;;;;;;;;
6.3425;6342500;153;;;;;;;;;;;;;;
6.345;6345000;138;;;;;;;;;;;;;;
6.3475;6347500;156;;;;;;;;;;;;;;
6.35;6350000;151;;;;;;;;;;;;;;
6.3525;6352500;173;;;;;;;;;;;;;;
6.355;6355000;154;;;;;;;;;;;;;;
6.3575;6357500;365;;;;;;;;;;;;;;
6.36;6360000;267;;;;;;;;;;;;;;
6.3625;6362500;198;6362730;129.708;-463.478;129.708;515.821;-124.685;515.821;6362283;-25.625;-136.597;-25.625;1661.117;-195.63;1661.117
6.365;6365000;166;;;;;;;;;;;;;;
6.3675;6367500;140;;;;;;;;;;;;;;
6.37;6370000;170;;;;;;;;;;;;;;
6.3725;6372500;155;;;;;;;;;;;;;;
6.375;6375000;175;;;;;;;;;;;;;;
6.3775;6377500;168;;;;;;;;;;;;;;
6.38;6380000;137;;;;;;;;;;;;;;
6.3825;6382500;135;;;;;;;;;;;;;;
6.385;6385000;154;;;;;;;;;;;;;;
6.3875;6387500;0;;;;;;;;;;;;;;
6.39;6390000;329;;;;;;;;;;;;;;
6.3925;6392500;217;6391724;129.634;-463.588;129.634;504.905;-121.951;504.905;6391284;-25.765;-136.532;-25.765;1654.624;-195.473;1654.624
6.395;6395000;175;;;;;;;;;;;;;;
6.3975;6397500;174;;;;;;;;;;;;;;
6.4;6400000;155;;;;;;;;;;;;;;
6.4025;6402500;151;;;;;;;;;;;;;;
6.405;6405000;127;;;;;;;;;;;;;;
6.4075;6407500;155;;;;;;;;;;;;;;
6.41;6410000;169;;;;;;;;;;;;;;
6.4125;6412500;181;6413337;129.533;-463.661;129.533;513.785;-120.229;513.785;6412889;-25.66;-136.672;-25.66;1664.205;-193.574;1664.205
6.415;6415000;154;;;;;;;;;;;;;;
6.4175;6417500;396;;;;;;;;;;;;;;
6.42;6420000;235;;;;;;;;;;;;;;
6.4225;6422500;167;;;;;;;;;;;;;;
6.425;6425000;139;;;;;;;;;;;;;;
6.4275;6427500;139;;;;;;;;;;;;;;
6.43;6430000;142;;;;;;;;;;;;;;
6.4325;6432500;173;;;;;;;;;;;;;;
6.435;6435000;155;;;;;;;;;;;;;;
6.4375;6437500;152;;;;;;;;;;;;;;
6.44;6440000;320;;;;;;;;;;;;;;
6.4425;6442500;192;6443618;129.613;-463.689;129.613;493.346;-116.842;493.346;6443178;-25.707;-136.701;-25.707;1649.682;-204.458;1649.682
6.445;6445000;171;;;;;;;;;;;;;;
6.4475;6447500;167;;;;;;;;;;;;;;
6.45;6450000;153;;;;;;;;;;;;;;
6.4525;6452500;155;;;;;;;;;;;;;;
6.455;6455000;154;;;;;;;;;;;;;;
6.4575;6457500;168;;;;;;;;;;;;;;
6.46;6460000;156;;;;;;;;;;;;;;
6.4625;6462500;127;;;;;;;;;;;;;;
6.465;6465000;136;;;;;;;;;;;;;;
6.4675;6467500;136;;;;;;;;;;;;;;
6.47;6470000;384;;;;;;;;;;;;;;
6.4725;6472500;235;6472626;129.672;-463.386;129.672;504.553;-120.188;504.553;6472179;-25.611;-136.643;-25.611;1653.823;-194.235;1653.823
6.475;6475000;184;;;;;;;;;;;;;;
6.4775;6477500;155;;;;;;;;;;;;;;
6.48;6480000;138;;;;;;;;;;;;;;
6.4825;6482500;153;;;;;;;;;;;;;;
6.485;6485000;153;;;;;;;;;;;;;;
6.4875;6487500;138;;;;;;;;;;;;;;
6.49;6490000;151;;;;;;;;;;;;;;
6.4925;6492500;156;;;;;;;;;;;;;;
6.495;6495000;154;6494223;129.514;-463.665;129.514;483.701;-116.803;483.701;6493783;-25.648;-136.752;-25.648;1640.694;-195.899;1640.694
6.4975;6497500;361;;;;;;;;;;;;;;
6.5;6500000;302;;;;;;;;;;;;;;
6.5025;6502500;202;;;;;;;;;;;;;;
6.505;6505000;169;;;;;;;;;;;;;;
6.5075;6507500;141;;;;;;;;;;;;;;
6.51;6510000;170;;;;;;;;;;;;;;
6.5125;6512500;156;;;;;;;;;;;;;;
6.515;6515000;157;;;;;;;;;;;;;;
6.5175;6517500;169;;;;;;;;6518355;-25.622;-136.753;-25.622;1653.16;-192.666;1653.16
6.52;6520000;5;6518804;129.626;-463.539;129.626;492.328;-121.025;492.328;;;;;;;
6.5225;6522500;235;;;;;;;;;;;;;;
6.525;6525000;185;;;;;;;;;;;;;;
6.5275;6527500;169;;;;;;;;;;;;;;
6.53;6530000;172;;;;;;;;;;;;;;
6.5325;6532500;155;;;;;;;;;;;;;;
6.535;6535000;173;;;;;;;;;;;;;;
6.5375;6537500;168;;;;;;;;;;;;;;
6.54;6540000;137;;;;;;;;;;;;;;
6.5425;6542500;152;;;;;;;;;;;;;;
6.545;6545000;127;6544655;129.696;-463.701;129.697;500.087;-122.849;500.087;6544215;-25.616;-136.772;-25.616;1652.752;-193.97;1652.752
6.5475;6547500;154;;;;;;;;;;;;;;
6.55;6550000;332;;;;;;;;;;;;;;
6.5525;6552500;281;;;;;;;;;;;;;;
6.555;6555000;221;;;;;;;;;;;;;;
6.5575;6557500;186;;;;;;;;;;;;;;
6.56;6560000;167;;;;;;;;;;;;;;
6.5625;6562500;154;;;;;;;;;;;;;;
6.565;6565000;136;;;;;;;;;;;;;;
6.5675;6567500;156;;;;;;;;;;;;;;
6.57;6570000;153;;;;;;;;;;;;;;
6.5725;6572500;154;;;;;;;;;;;;;;
6.575;6575000;156;6575040;129.714;-463.781;129.714;482.082;-119.332;482.082;6574591;-25.647;-136.649;-25.647;1643.614;-198.709;1643.614
6.5775;6577500;171;;;;;;;;;;;;;;
6.58;6580000;365;;;;;;;;;;;;;;
6.5825;6582500;204;;;;;;;;;;;;;;
6.585;6585000;155;;;;;;;;;;;;;;
6.5875;6587500;141;;;;;;;;;;;;;;
6.59;6590000;152;;;;;;;;;;;;;;
6.5925;6592500;154;;;;;;;;;;;;;;
6.595;6595000;156;;;;;;;;;;;;;;
6.5975;6597500;169;;;;;;;;;;;;;;
6.6;6600000;0;;;;;;;;;;;;;;
6.6025;6602500;300;;;;;;;;;;;;;;
6.605;6605000;185;6605494;129.78;-463.656;129.78;508.728;-120.365;508.728;6605054;-25.67;-136.551;-25.67;1653.746;-186.149;1653.746
6.6075;6607500;152;;;;;;;;;;;;;;
6.61;6610000;171;;;;;;;;;;;;;;
6.6125;6612500;175;;;;;;;;;;;;;;
6.615;6615000;154;;;;;;;;;;;;;;
6.6175;6617500;152;;;;;;;;;;;;;;
6.62;6620000;139;;;;;;;;;;;;;;
6.6225;6622500;153;;;;;;;;;;;;;;
6.625;6625000;17;;;;;;;;;;;;;;
6.6275;6627500;269;;;;;;;;;;;;;;
6.63;6630000;190;;;;;;;;;;;;;;
6.6325;6632500;172;;;;;;;;;;;;;;
6.635;6635000;183;6634502;129.653;-463.873;129.653;503.417;-120.034;503.417;6634055;-25.759;-136.446;-25.759;1655.934;-186.029;1655.934
6.6375;6637500;150;;;;;;;;;;;;;;
6.64;6640000;156;;;;;;;;;;;;;;
6.6425;6642500;136;;;;;;;;;;;;;;
6.645;6645000;127;;;;;;;;;;;;;;
6.6475;6647500;154;;;;;;;;;;;;;;
6.65;6650000;140;;;;;;;;;;;;;;
6.6525;6652500;330;;;;;;;;;;;;;;
6.655;6655000;220;6656100;129.612;-463.878;129.612;511.059;-120.595;511.059;6655659;-25.868;-136.401;-25.868;1660.2;-188.54;1660.2
6.6575;6657500;170;;;;;;;;;;;;;;
6.66;6660000;141;;;;;;;;;;;;;;
6.6625;6662500;136;;;;;;;;;;;;;;
6.665;6665000;155;;;;;;;;;;;;;;
6.6675;6667500;138;;;;;;;;;;;;;;
6.67;6670000;143;;;;;;;;;;;;;;
6.6725;6672500;157;;;;;;;;;;;;;;
6.675;6675000;175;;;;;;;;;;;;;;
6.6775;6677500;151;;;;;;;;;;;;;;
6.68;6680000;154;;;;;;;;;;;;;;
6.6825;6682500;360;;;;;;;;;;;;;;
6.685;6685000;204;;;;;;;;6686123;-25.843;-136.553;-25.843;1660.315;-184.8;1660.315
6.6875;6687500;167;6686571;129.616;-464.065;129.616;520.943;-118.503;520.943;;;;;;;
6.69;6690000;174;;;;;;;;;;;;;;
6.6925;6692500;175;;;;;;;;;;;;;;
6.695;6695000;174;;;;;;;;;;;;;;
6.6975;6697500;169;;;;;;;;;;;;;;
6.7;6700000;157;;;;;;;;;;;;;;
6.7025;6702500;134;;;;;;;;;;;;;;
6.705;6705000;126;;;;;;;;;;;;;;
6.7075;6707500;157;;;;;;;;;;;;;;
6.71;6710000;153;;;;;;;;;;;;;;
6.7125;6712500;408;;;;;;;;;;;;;;
6.715;6715000;269;6715564;129.912;-464.133;129.912;499.271;-116.953;499.271;6715123;-25.868;-136.49;-25.868;1649.486;-181.248;1649.486
6.7175;6717500;203;;;;;;;;;;;;;;
6.72;6720000;170;;;;;;;;;;;;;;
6.7225;6722500;136;;;;;;;;;;;;;;
6.725;6725000;138;;;;;;;;;;;;;;
6.7275;6727500;166;;;;;;;;;;;;;;
6.73;6730000;151;;;;;;;;;;;;;;
6.7325;6732500;175;;;;;;;;;;;;;;
6.735;6735000;174;;;;;;;;;;;;;;
6.7375;6737500;170;;;;;;;;;;;;;;
6.74;6740000;138;;;;;;;;;;;;;;
6.7425;6742500;300;;;;;;;;;;;;;;
6.745;6745000;216;;;;;;;;;;;;;;
6.7475;6747500;157;;;;;;;;;;;;;;
6.75;6750000;173;;;;;;;;;;;;;;
6.7525;6752500;174;;;;;;;;;;;;;;
6.755;6755000;154;;;;;;;;;;;;;;
6.7575;6757500;168;;;;;;;;;;;;;;
6.76;6760000;127;;;;;;;;;;;;;;
6.7625;6762500;141;;;;;;;;;;;;;;
6.765;6765000;250;;;;;;;;;;;;;;
6.7675;6767500;174;;;;;;;;;;;;;;
6.77;6770000;159;;;;;;;;;;;;;;
6.7725;6772500;155;;;;;;;;;;;;;;
6.775;6775000;175;;;;;;;;;;;;;;
6.7775;6777500;171;;;;;;;;;;;;;;
6.78;6780000;138;;;;;;;;;;;;;;
6.7825;6782500;126;;;;;;;;;;;;;;
6.785;6785000;125;;;;;;;;;;;;;;
6.7875;6787500;156;;;;;;;;;;;;;;
6.79;6790000;172;;;;;;;;;;;;;;
6.7925;6792500;381;;;;;;;;;;;;;;
6.795;6795000;297;;;;;;;;;;;;;;
6.7975;6797500;202;;;;;;;;;;;;;;
6.8;6800000;182;;;;;;;;;;;;;;
6.8025;6802500;137;;;;;;;;;;;;;;
6.805;6805000;137;;;;;;;;;;;;;;
